Ewe/V	I/A	freq/Hz	Re(Z)/Ohm	-Im(Z)/Ohm	|Z|/Ohm	Phase(Z)/deg
0.84331614	0.045292725	199998.14	-0.017325176	-0.11515063	0.11644668	98.556351
0.84330028	0.045287968	178249.33	-0.0034223977	-0.097365648	0.097425781	92.013115
0.84333581	0.045279617	158857.27	-0.0019557325	-0.094075508	0.094095834	91.190948
0.84337693	0.045277824	141580.69	0.0015880874	-0.084789924	0.084804796	88.926994
0.84332061	0.045269245	126178.37	0.017655093	-0.063129254	0.065551542	74.375511
0.84332049	0.045268204	112455.46	0.0063948669	-0.066018373	0.066327371	84.467308
0.84330732	0.045267139	100226.4	0.011660368	-0.059557941	0.060688652	78.922638
0.84333104	0.045255764	89324.156	0.012812838	-0.054587252	0.056070819	76.790535
0.84329283	0.045255688	79609.563	0.015969232	-0.044917721	0.047671985	70.428589
0.84323984	0.045256004	70952.719	0.015890202	-0.042603333	0.045470238	69.545479
0.84323078	0.045250729	6,32E+04	0.018441493	-0.034913495	0.039484691	62.15675
0.84302276	0.045251846	56357.633	0.013436427	-0.031704064	0.034433782	67.032394
0.84320402	0.045247894	50224.539	0.044851959	0.0095794126	0.045863528	-12.056008
0.84333944	0.045250336	44759.504	0.016920157	-0.023495549	0.028953973	54.240715
0.84337491	0.045253635	39888.289	0.016442947	-0.017267214	0.023843808	46.400692
0.84326565	0.045253918	35555.2229999999	0.014726751	-0.014038214	0.020345729	43.628792
0.84328985	0.045248119	31686.088	0.017804394	-0.014375249	0.022883274	38.91737
0.84327722	0.04525597	28243.766	0.018438118	-0.012929103	0.022519456	35.038754
0.84316778	0.045252613	25172.58	0.01789712	-0.0061676474	0.01893005	19.014809
0.8431946	0.045254272	22435.422	0.016647873	-0.0026858423	0.016863139	9.1646996
0.84306413	0.045252464	19995.176	0.019745052	-0.003623673	0.020074813	10.399376
0.8430565	0.0452533	17833.281	0.019727362	-0.0047226199	0.020284772	13.462919
0.84326589	0.045253448	15875.521	0.019636119	-0.0024935529	0.019793812	7.237144
0.84314078	0.045250786	14149.722	0.016509857	-0.0032202259	0.016820977	11.036896
0.8431527	0.045250542	12609.483	0.017147562	0.00019642981	0.017148687	-0.65630949
0.84316462	0.045251755	11236.27	0.015808536	0.00026715253	0.015810793	-0.96816397
0.84292096	0.045250225	10020.782	0.017296711	-0.0035304634	0.017653339	11.536283
0.84310782	0.045255669	8926.084	0.015884731	0.00078138412	0.015903939	-2.8161604
0.84317446	0.045250729	7959.7627	0.017183194	-0.000043995038	0.01718325	0.14669709
0.84325624	0.045247765	7094.7432	0.01540398	0.0013560286	0.015463552	-5.030839
0.84324074	0.045259045	6317.6675	0.016372859	0.0023084541	0.016534796	-8.0253887
0.8432548	0.045257053	5634.436	0.01790962	0.0023779031	0.01806679	-7.5630631
0.84316915	0.045253357	5021.6064	0.021050423	0.0051961397	0.021682255	-13.865849
0.84321004	0.045256935	4476.4321	0.010547184	-0.054290123	0.055305157	79.005844
0.84314895	0.045254589	3986.2754	0.021105064	0.0056826449	0.02185672	-15.069784
0.84309864	0.045250412	3551.5906	0.016780969	0.0068180072	0.018113147	-22.111614
0.84312749	0.045251774	3166.0132	0.020206561	0.0054965839	0.02094081	-15.217381
0.84305334	0.045247223	2822.2908	0.018931406	0.0061320234	0.019899745	-17.947525
0.84310675	0.04525724	2515.8052	0.022461794	0.0057008858	0.023173958	-14.241173
0.84307665	0.045254311	2240.7168	0.020313662	0.0048435335	0.020883119	-13.411041
0.84301496	0.045253059	1998.0815	0.021696331	0.0043938281	0.022136768	-11.448411
0.84303749	0.045251328	1780.5698	0.021796167	0.0061610113	0.022650186	-15.783735
0.84302205	0.04524786	1587.5402	0.023338754	0.0044492446	0.023759065	-10.793223
0.84304076	0.045250576	1413.6429	0.022809133	0.0054292558	0.023446394	-13.388955
0.84306502	0.045257687	1260.4036	0.021775231	0.0094376514	0.023732467	-23.432497
0.84291917	0.045256023	1123.921	0.023749068	0.0071301772	0.024796324	-16.711321
0.84293991	0.045256489	1001.6025	0.024845766	0.0040949094	0.025180953	-9.358964
0.84307861	0.045256603	892.57068	0.02098299	0.0064496007	0.021951839	-17.086004
0.84314799	0.045252369	795.2547	0.025170214	0.005618941	0.025789769	-12.584241
0.8430745	0.04524905	708.41333	0.019183146	0.011465017	0.022348147	-30.865112
0.84311903	0.045259121	631.81964	0.026532158	0.0081703914	0.027761677	-17.115847
0.84308773	0.045254459	563.01819	0.025874143	0.0099085439	0.027706508	-20.95442
0.84307486	0.04525386	502.08871	0.024064492	0.0044555524	0.02447349	-10.489555
0.84303796	0.045257759	447.43402	0.02497308	0.0096413046	0.026769562	-21.109976
0.84301376	0.045253376	398.59692	0.025714803	0.0077337772	0.026852606	-16.738762
0.84298503	0.045257183	355.11365	0.028012116	0.012578608	0.030706678	-24.18207
0.84298098	0.045253376	316.72299	0.026820913	0.0098430198	0.028570026	-20.152657
0.84297937	0.04525552	282.25809	0.031701826	0.013037642	0.034278065	-22.355328
0.84297043	0.045254795	251.36742	0.028544961	0.017617915	0.033544086	-31.682833
0.84271055	0.045254589	224.21082	0.025261259	0.0075708367	0.026371362	-16.683552
0.84287703	0.04525153	199.80815	0.030765716	0.017307492	0.035299838	-29.360266
0.84300101	0.045257389	178.00633	0.029193234	0.019634144	0.035181593	-33.923122
0.8430298	0.045257927	158.62947	0.032333706	0.019027701	0.037516955	-30.475908
0.84300739	0.045254234	141.31134	0.032137893	0.021071877	0.038430043	-33.251686
0.84312308	0.045257442	126.00809	0.030377788	0.019026784	0.035844505	-32.060505
0.84299523	0.045258095	112.33657	0.03680357	0.022367388	0.043067422	-31.289162
0.8429997	0.04525386	100.03201	0.035698224	0.026025409	0.044177879	-36.093521
0.8429845	0.045256786	89.229065	0.035852667	0.026247216	0.044433434	-36.207317
0.84283811	0.045247894	79.516533	0.035970047	0.03273423	0.04863511	-42.30349
0.84288269	0.045255241	70.838745	0.037099745	0.030907186	0.048287112	-39.797123
0.84291434	0.045254032	63.160755	0.036205478	0.037692942	0.052264657	-46.153122
0.84287924	0.045255371	56.241817	0.040710475	0.041752119	0.05831451	-45.723705
0.84275442	0.045255054	50.144413	0.037547085	0.043478481	0.057447035	-49.186813
0.84281862	0.045258598	44.728058	0.041292682	0.049495637	0.064458542	-50.1628
0.84299922	0.045256805	39.859692	0.042751055	0.051790807	0.067156091	-50.461811
0.84299093	0.045252724	35.511364	0.046620455	0.059749547	0.075785719	-52.036346
0.84297198	0.04525843	31.629551	0.042483244	0.06299898	0.075984851	-56.006317
0.84299302	0.045252686	28.203972	0.047252551	0.071823217	0.085973121	-56.65905
0.84299862	0.045257908	25.136742	0.05276664	0.072991095	0.090066746	-54.136124
0.8430078	0.045259193	22.385387	0.052281421	0.08683528	0.10135932	-58.948872
0.84297299	0.045255932	19.955299	0.060332607	0.09304294	0.11089189	-57.039078
0.84297997	0.045260014	17.796129	0.065278813	0.10459808	0.12329672	-58.032047
0.84291095	0.045261379	15.857576	0.063709579	0.11257589	0.12935317	-60.493366
0.8429535	0.045256229	14.13601	0.072827928	0.12690735	0.14631945	-60.14991
0.84274143	0.045261078	12.600808	0.079597212	0.13640849	0.1579335	-59.735542
0.84283596	0.045262848	11.224856	0.081706606	0.15187226	0.17245623	-61.719944
0.84292364	0.045260799	10.003201	0.096826337	0.16157407	0.18836538	-59.067047
0.84290344	0.045254906	8.9183798	0.11465695	0.18320121	0.21612242	-57.959503
0.84290463	0.045255299	7.9395342	0.12896745	0.19372246	0.23272514	-56.346981
0.84289825	0.045249554	7.0765405	0.13623983	0.20448685	0.2457156	-56.326374
0.84256709	0.045241272	6.3105822	0.17412135	0.2244494	0.28407001	-52.196724
0.84272814	0.045245861	5.6286025	0.19101979	0.22640218	0.29622036	-49.845043
0.84290487	0.045259438	5.0144415	0.18951021	0.24661116	0.31101638	-52.459251
0.84288698	0.045260929	4.4693937	0.22793972	0.27074283	0.35391834	-49.905807
0.84288424	0.04525433	3.9859693	0.23921733	0.27195165	0.36219141	-48.664112
0.84284174	0.045254074	3.5511365	0.26515803	0.28905559	0.39225236	-47.469051
0.84278733	0.045247692	3.1655185	0.3080065	0.28670692	0.4207955	-42.948837
0.842776	0.045254513	2.8183618	0.3244684	0.29972845	0.44172037	-42.730278
0.84262305	0.045254864	2.513674	0.40077776	0.30816031	0.50555474	-37.556889
0.84279728	0.045256538	2.2398219	0.39441603	0.29059568	0.48990801	-36.381844
0.8428033	0.045254631	1.9970604	0.43527326	0.3039774	0.53090966	-34.928905
0.8425957	0.045255352	1.7796129	0.49435174	0.2623165	0.55963701	-27.951639
0.84276396	0.045254196	1.5846854	0.47685406	0.30017498	0.56346679	-32.190014
0.84277922	0.045253853	1.4122382	0.53309244	0.28861883	0.60620821	-28.431328
0.84264284	0.045254475	1.2596743	0.55077499	0.27206898	0.61430824	-26.288212
0.84258187	0.045252541	1.1224856	0.56094056	0.24189803	0.61087561	-23.327467
0.84252769	0.045254303	1.0000638	0.61474729	0.24194089	0.66064334	-21.482691
