Ewe/V	I/A	freq/Hz	Re(Z)/Ohm	-Im(Z)/Ohm	|Z|/Ohm	Phase(Z)/deg
0.76418632	0.90633594	199998.14	0.0010693771	0.0030103221	0.0031946215	-70.443092
0.76422191	0.90584778	178249.33	0.0051188301	-0.00026250994	0.0051255571	2.9357383
0.76432443	0.90491986	158857.27	0.0058899233	-0.0013012389	0.00603195	12.458031
0.76430649	0.9045498	141580.69	0.0063974806	-0.0021279866	0.0067421128	18.398613
0.76432729	0.9041723	126178.37	0.008239259	-0.001383396	0.0083545903	9.5312281
0.7643612	0.90388013	112455.46	0.007782938	-0.0022911318	0.0081131626	16.403311
0.76438314	0.90376538	100226.4	0.008328544	-0.0032831379	0.0089522982	21.514513
0.76438093	0.90365283	89324.156	0.0097298203	-0.0023737231	0.010015187	13.710275
0.76442218	0.90357568	79609.563	0.010022216	-0.0027538079	0.010393665	15.364017
0.76442903	0.9036864	70952.719	0.010192182	-0.002670751	0.010536293	14.6836
0.76440614	0.9035932	6,32E+04	0.010142957	-0.0021457793	0.010367447	11.945009
0.76441407	0.90347772	56357.633	0.011425792	-0.0014931501	0.011522943	7.4453588
0.76441693	0.90350671	50224.539	0.011030995	-0.0034061205	0.011544892	17.159498
0.76444268	0.90348816	44759.504	0.01162893	0.00047314056	0.011638552	-2.32988
0.76441157	0.90345758	39888.289	0.012364356	0.00058146304	0.01237802	-2.6924858
0.76444036	0.90343256	35555.2229999999	0.013397635	0.00012136507	0.013398184	-0.51901072
0.76443666	0.90333197	31686.088	0.013623403	0.000373697	0.013628528	-1.5712589
0.76445299	0.90337036	28243.766	0.013605908	0.00083119754	0.013631273	-3.4959078
0.76439798	0.90345789	25172.58	0.015168484	0.00090879231	0.015195685	-3.4286745
0.76439458	0.90341058	22435.422	0.014269237	0.00033959904	0.014273278	-1.3633467
0.76439083	0.90351868	19995.176	0.014721397	0.0008723354	0.01474722	-3.39117
0.76442969	0.90341205	17833.281	0.01493217	0.001621458	0.015019948	-6.1973653
0.76439565	0.90344641	15875.521	0.015939888	0.001455763	0.016006226	-5.2182508
0.7643612	0.90338379	14149.722	0.014943807	0.0018965468	0.015063674	-7.2328486
0.76436764	0.90342407	12609.483	0.01517773	0.0016432513	0.015266427	-6.1791883
0.76439989	0.90354474	11236.27	0.014921115	0.0014691122	0.014993263	-5.6231394
0.76442081	0.90344232	10020.782	0.015378669	0.0019264998	0.015498866	-7.1402988
0.76437253	0.90333014	8926.084	0.015313426	0.0016976432	0.015407239	-6.3259673
0.76439691	0.90331335	7959.7627	0.015733948	0.0022586852	0.015895244	-8.1692772
0.7644074	0.90322125	7094.7432	0.015990479	0.0025507216	0.016192641	-9.0631809
0.76434928	0.90356262	6317.6675	0.016494364	0.0027480393	0.016721714	-9.4588709
0.7643556	0.90356	5634.436	0.015784577	0.0025039453	0.015981946	-9.0138588
0.76433343	0.90358838	5021.6064	0.016016051	0.0024132079	0.016196836	-8.5685482
0.76436371	0.90354364	4476.4321	0.017043345	0.0025550877	0.017233806	-8.5261164
0.76435715	0.90352094	3986.2754	0.016620783	0.003162744	0.016919024	-10.77392
0.76435709	0.90355743	3551.5906	0.016468816	0.003579298	0.016853286	-12.261853
0.76439422	0.90347247	3166.0132	0.017416863	0.0025740901	0.017606052	-8.4070559
0.76435721	0.90357349	2822.2908	0.017546054	0.0031723613	0.017830532	-10.248476
0.76437426	0.90358759	2515.8052	0.016658958	0.0032472319	0.01697249	-11.030018
0.76441026	0.90352386	2240.7168	0.017446596	0.0036752876	0.017829511	-11.895953
0.76434737	0.90355743	1998.0815	0.017017193	0.0038804368	0.017454015	-12.845537
0.76435196	0.90354889	1780.5698	0.017876437	0.004024419	0.018323835	-12.687159
0.76436102	0.90351495	1587.5402	0.017845782	0.003960866	0.018280054	-12.513927
0.7643472	0.9035824	1413.6429	0.018578572	0.0045647523	0.019131135	-13.804121
0.76437271	0.90352386	1260.4036	0.01802112	0.0039209714	0.018442743	-12.274903
0.76433837	0.90355109	1123.921	0.019100795	0.0047812592	0.019690119	-14.053353
0.76434135	0.9035351	1001.6025	0.018941779	0.00514872	0.019629067	-15.206627
0.76437217	0.9034751	892.57068	0.018708695	0.0053209881	0.019450661	-15.876418
0.76439774	0.90353766	795.2547	0.019559428	0.0050725266	0.020206477	-14.538748
0.76437962	0.90350525	708.41333	0.019612692	0.0058912039	0.020478379	-16.719065
0.76445222	0.90348553	631.81964	0.019565938	0.0063086124	0.020557834	-17.87079
0.76436442	0.90360773	563.01819	0.020066597	0.0068770316	0.021212304	-18.917122
0.76438403	0.90358496	502.08871	0.020978872	0.0071247309	0.022155697	-18.758236
0.76443696	0.90365393	447.43402	0.020748861	0.0087746736	0.022527985	-22.923456
0.76436591	0.90352722	398.59692	0.022068216	0.0079717105	0.023463894	-19.861261
0.76438624	0.90356525	355.11365	0.021633541	0.0084659578	0.023231069	-21.372135
0.76438379	0.9035932	316.72299	0.021607867	0.0082065575	0.023113795	-20.796522
0.76440102	0.90357648	282.25809	0.02268507	0.0097052315	0.024673952	-23.162432
0.76436919	0.90359393	251.36742	0.023011278	0.0087192366	0.024607804	-20.752272
0.76436949	0.90353729	224.21082	0.02326574	0.011181215	0.025813064	-25.668339
0.76438922	0.90357568	199.80815	0.024117662	0.011512858	0.026724661	-25.518042
0.76435113	0.9035105	178.00633	0.024404179	0.01311728	0.027706083	-28.258091
0.76438069	0.90361743	158.62947	0.025704108	0.014122333	0.029328169	-28.785242
0.7643916	0.90356415	141.31134	0.026671637	0.01495705	0.030579234	-29.283049
0.76437455	0.90359656	126.00809	0.027792007	0.016224938	0.032181427	-30.276327
0.76440489	0.90355109	112.33657	0.029421594	0.01623502	0.033603661	-28.890188
0.76441324	0.90361371	100.03201	0.029607598	0.018421246	0.034870505	-31.889036
0.7644062	0.90367664	89.229065	0.031672839	0.019502187	0.037195485	-31.622206
0.76440507	0.90356342	79.516533	0.033221953	0.021180669	0.039399479	-32.519562
0.76442468	0.90362079	70.838745	0.035058301	0.022801803	0.041821126	-33.039845
0.76437283	0.90362042	63.160755	0.036966667	0.024010543	0.044079933	-33.004478
0.76438391	0.90369568	56.241817	0.038528211	0.024782224	0.045810279	-32.75005
0.76439476	0.90363049	50.144413	0.041626312	0.026228188	0.049200282	-32.214485
0.76438951	0.90364465	44.728058	0.043759204	0.026865562	0.05134809	-31.547462
0.7644223	0.90361932	39.859692	0.047820397	0.028009117	0.055419318	-30.358141
0.7644133	0.90363159	35.511364	0.049075264	0.028427461	0.056714214	-30.082106
0.76436573	0.90375195	31.629551	0.051606148	0.030253571	0.059820339	-30.380524
0.76437777	0.90361444	28.203972	0.055587467	0.029473012	0.062917605	-27.932966
0.76440257	0.90364612	25.136742	0.058564126	0.029143192	0.065414697	-26.456257
0.76438731	0.90374634	22.385387	0.061239127	0.029901134	0.068149164	-26.024797
0.76434863	0.90365546	19.955299	0.063227355	0.027600149	0.068988889	-23.58234
0.76435453	0.90356415	17.796129	0.065571494	0.027772903	0.071210638	-22.955158
0.7643255	0.90367297	15.857576	0.068962358	0.025954325	0.073684692	-20.624077
0.76436204	0.90356525	14.13601	0.069718905	0.026147043	0.074460685	-20.557814
0.76431471	0.90350598	12.600808	0.074759819	0.023557214	0.078383498	-17.489916
0.76434445	0.90359473	11.224856	0.075577423	0.025502417	0.07976415	-18.646162
0.76432562	0.90372101	10.003201	0.076632127	0.021658447	0.079633981	-15.781821
0.76434308	0.90365228	8.9183798	0.080108888	0.01969707	0.0824949	-13.813787
0.76427752	0.90364966	7.9395342	0.080885649	0.019040307	0.08309646	-13.246151
0.76429021	0.90379559	7.0765405	0.080700845	0.017665001	0.082611613	-12.347009
0.76437527	0.90337708	6.3105822	0.081377245	0.019092577	0.083586976	-13.203815
0.76426643	0.90331818	5.6286025	0.085001625	0.012718203	0.085947827	-8.5096426
0.76432115	0.90315985	5.0144415	0.086454794	0.01361115	0.087519683	-8.9470148
0.76427829	0.90361798	4.4693937	0.086592063	0.010506022	0.087227069	-6.9177575
0.76429665	0.90369086	3.9859693	0.08658009	0.010271299	0.087187223	-6.7655773
0.7642985	0.90362579	3.5511365	0.085021034	0.0095430249	0.085554928	-6.4042516
0.76434028	0.90342963	3.1655185	0.086175002	0.0069764368	0.086456932	-4.6283789
0.76430899	0.90365637	2.8183618	0.088354386	0.0060587157	0.088561878	-3.9227962
0.76432723	0.90368036	2.513674	0.087584548	0.0058272108	0.087778181	-3.8064165
0.76433623	0.9035434	2.2398219	0.086861655	0.0039252322	0.086950302	-2.5874054
0.7643435	0.90361743	1.9970604	0.08834026	0.0037604305	0.088420257	-2.4374709
0.76436603	0.90360419	1.7796129	0.087027825	0.0026816183	0.087069131	-1.7649162
0.76435018	0.90366687	1.5846854	0.087681778	0.0015788509	0.087695993	-1.0315908
0.76438421	0.90359436	1.4122382	0.089086279	0.0020296331	0.089109398	-1.3051313
0.76438385	0.90355017	1.2596743	0.085761435	0.0014200008	0.085773192	-0.94859207
0.76440072	0.90357806	1.1224856	0.087131366	0.0010167595	0.087137297	-0.66856962
0.76443499	0.90355396	1.0000638	0.087167405	0.0010185208	0.087173358	-0.66945076
