Ewe/V	I/A	freq/Hz	Re(Z)/Ohm	-Im(Z)/Ohm	|Z|/Ohm	Phase(Z)/deg
0.86411494	0.045115414	199998.14	-0.015314454	-0.110924	0.11197618	97.86071
0.86412919	0.045117001	178249.33	0.0050423094	-0.10425913	0.10438099	87.231148
0.86410719	0.045104076	158857.27	-0.0030761331	-0.091159813	0.091211699	91.932678
0.86410511	0.045099506	141580.69	-0.0019293032	-0.083235994	0.083258353	91.327805
0.86407262	0.045098686	126178.37	0.010896667	-0.081553407	0.082278162	82.389565
0.86407185	0.045094582	112455.46	0.0095842546	-0.066405162	0.067093246	81.787216
0.86405861	0.045095963	100226.4	0.012147144	-0.057295199	0.058568705	78.029976
0.86402059	0.045090107	89324.156	0.0086889379	-0.053193223	0.053898204	80.722855
0.86395854	0.045094059	79609.563	0.013800959	-0.047803678	0.049755987	73.89653
0.86395818	0.045084606	70952.719	0.013355778	-0.041492119	0.043588676	72.157303
0.86389482	0.045087345	6,32E+04	0.015972869	-0.035653424	0.039067879	65.867439
0.86395562	0.045085876	56357.633	0.016807402	-0.030670112	0.034973484	61.277
0.86384767	0.045084122	50224.539	0.012917215	-0.031931084	0.034444861	67.974983
0.86385494	0.045086937	44759.504	0.014454028	-0.023591194	0.027667008	58.504723
0.86387664	0.045086639	39888.289	0.015352284	-0.019112037	0.024514539	51.225845
0.86385071	0.045082779	35555.2229999999	0.015454547	-0.015715323	0.022041198	45.479343
0.86385465	0.045083042	31686.088	0.013406171	-0.011404375	0.017600715	40.38718
0.86384058	0.045086395	28243.766	0.015863644	-0.010740214	0.019157438	34.099304
0.86381894	0.045083935	25172.58	0.016076863	-0.012070846	0.020104	36.89999
0.86384642	0.045082142	22435.422	0.020270953	-0.004902672	0.020855401	13.596294
0.86382002	0.045085522	19995.176	0.01007481	-0.011872851	0.015571333	49.683445
0.86378443	0.0450825	17833.281	0.020268166	-0.0047545768	0.020818371	13.201933
0.86376721	0.04508567	15875.521	0.0132606	-0.0032878714	0.013662123	13.925259
0.8637833	0.045078281	14149.722	0.015269337	-0.0032127693	0.015603671	11.88209
0.86373132	0.045080391	12609.483	0.021514917	-0.0020135154	0.02160893	5.3465643
0.86371499	0.045084549	11236.27	0.0094226487	-0.0350818	0.036325183	74.965706
0.86371255	0.04508675	10020.782	0.016693246	-0.0036258346	0.017082481	12.254509
0.86366367	0.045079758	8926.084	0.013092579	-0.002487201	0.013326732	10.756324
0.86363953	0.045086025	7959.7627	0.015027455	0.00066226599	0.015042041	-2.5234151
0.86363059	0.045079422	7094.7432	0.015498972	0.00072871591	0.015516093	-2.6918962
0.86354125	0.045092888	6317.6675	0.015354057	0.0031382013	0.015671482	-11.55153
0.86355346	0.045091862	5634.436	0.019585444	0.00065807137	0.019596497	-1.9244156
0.86356163	0.045089642	5021.6064	0.016028436	0.0026486255	0.016245799	-9.3830729
0.86352205	0.045081081	4476.4321	0.014263126	0.005224972	0.015190033	-20.11916
0.86349356	0.04508651	3986.2754	0.016693292	0.0043163728	0.017242305	-14.497406
0.86344939	0.045079983	3551.5906	0.01868923	0.0027338185	0.01888812	-8.3220768
0.86347401	0.045087944	3166.0132	0.018157452	0.003934857	0.018578917	-12.227361
0.86343318	0.045083729	2822.2908	0.018001938	0.0069457912	0.019295435	-21.098396
0.86343145	0.045079926	2515.8052	0.017127013	0.0055887327	0.018015785	-18.072073
0.86340946	0.04508123	2240.7168	0.021155	0.0048725423	0.021708885	-12.970492
0.86338788	0.045088654	1998.0815	0.017527224	0.0041584554	0.018013783	-13.347034
0.86338603	0.045085033	1780.5698	0.022565534	0.0029405847	0.022756327	-7.4245524
0.86335796	0.045088203	1587.5402	0.020526117	0.0066637048	0.021580696	-17.985771
0.8633607	0.045084846	1413.6429	0.022876242	0.004155132	0.023250539	-10.294701
0.86332989	0.045084717	1260.4036	0.020847071	0.0040467228	0.021236204	-10.985334
0.86334246	0.045082333	1123.921	0.023688778	0.0059517254	0.024425013	-14.103448
0.86330509	0.045088112	1001.6025	0.023989005	0.0065232399	0.024860108	-15.212392
0.86329269	0.045083748	892.57068	0.022038335	0.0083579905	0.023569986	-20.769123
0.86327034	0.045086079	795.2547	0.018986458	0.0086901644	0.020880722	-24.593725
0.86322623	0.045083076	708.41333	0.022267921	0.0071069025	0.023374524	-17.700706
0.86325681	0.045086079	631.81964	0.021210762	0.0079187807	0.022640748	-20.472507
0.86319453	0.045084251	563.01819	0.023578458	0.0094680917	0.025408432	-21.878267
0.86318302	0.045088917	502.08871	0.022842472	0.0090242876	0.024560463	-21.557299
0.86319125	0.045086079	447.43402	0.023543274	0.013987259	0.027384834	-30.714907
0.86315632	0.045079628	398.59692	0.022439202	0.01093969	0.024963867	-25.990427
0.86312586	0.045079235	355.11365	0.024276748	0.0097946478	0.026178151	-21.972006
0.86311656	0.045084942	316.72299	0.027148612	0.01141615	0.029451242	-22.807037
0.8630935	0.045086136	282.25809	0.026065519	0.012906707	0.029085983	-26.342957
0.86307162	0.045084381	251.36742	0.029732928	0.013161074	0.032515548	-23.876245
0.86305219	0.045083973	224.21082	0.029436633	0.014073986	0.032628093	-25.552988
0.86302745	0.04508744	199.80815	0.028423449	0.014116067	0.031735718	-26.410583
0.86301261	0.045082558	178.00633	0.030054841	0.012254802	0.032457259	-22.183081
0.86300075	0.04508453	158.62947	0.024673026	0.019047504	0.031169947	-37.668037
0.86301374	0.045080837	141.31134	0.027313348	0.017755842	0.032577429	-33.027061
0.86299509	0.045085201	126.00809	0.026334893	0.020881265	0.033608835	-38.411339
0.86298913	0.045082123	112.33657	0.026040096	0.027485693	0.037862249	-46.547039
0.86294121	0.045084419	100.03201	0.029600278	0.024677744	0.038537871	-39.817959
0.86293757	0.045080486	89.229065	0.028899593	0.02424293	0.037721429	-39.992195
0.86289197	0.045082333	79.516533	0.032768946	0.026908191	0.042401116	-39.391098
0.86290181	0.045085373	70.838745	0.031768385	0.031181702	0.044514365	-44.46603
0.86289102	0.045081974	63.160755	0.03203107	0.033388618	0.046268664	-46.188797
0.862854	0.045082726	56.241817	0.029525777	0.034199838	0.045181859	-49.194942
0.86286277	0.04508147	50.144413	0.034772735	0.042853873	0.055186931	-50.943237
0.86286545	0.045079571	44.728058	0.035543576	0.046519801	0.058544323	-52.618271
0.86280465	0.045084808	39.859692	0.035368457	0.051806025	0.062727921	-55.67828
0.86279958	0.04508358	35.511364	0.036697268	0.054783996	0.065939181	-56.183697
0.86282009	0.045086079	31.629551	0.038923241	0.063355856	0.07435713	-58.435139
0.8628	0.045080669	28.203972	0.044831466	0.067213498	0.080793038	-56.296677
0.86278647	0.045083973	25.136742	0.044464532	0.07610219	0.088139877	-59.703365
0.86275619	0.045090385	22.385387	0.047938306	0.086421773	0.098827139	-60.982792
0.86274183	0.04508239	19.955299	0.045847621	0.090741307	0.10166606	-63.194523
0.86273181	0.045087963	17.796129	0.055387463	0.10028321	0.11456218	-61.087669
0.86271149	0.045093426	15.857576	0.059303116	0.10717343	0.12248675	-61.042583
0.86275977	0.045082966	14.13601	0.06944187	0.12305024	0.14129238	-60.562332
0.86267906	0.045083858	12.600808	0.072607584	0.13155022	0.15025751	-61.104019
0.8626951	0.045086044	11.224856	0.08317323	0.14410095	0.1663817	-60.007008
0.8626681	0.045086861	10.003201	0.091630198	0.16023675	0.18458578	-60.23724
0.86266381	0.045084064	8.9183798	0.10133912	0.17198832	0.19962364	-59.492519
0.8626563	0.04508429	7.9395342	0.11466097	0.18516992	0.21779586	-58.233368
0.86261904	0.045075935	7.0765405	0.12781304	0.19800699	0.2356755	-57.157852
0.86260217	0.045078545	6.3105822	0.14663665	0.2156551	0.26078618	-55.7859
0.8626231	0.045072166	5.6286025	0.16147114	0.22065106	0.27342242	-53.803555
0.86259234	0.045080933	5.0144415	0.18701506	0.24716243	0.30994177	-52.887089
0.86258	0.045083199	4.4693937	0.21106198	0.25232261	0.32895875	-50.088303
0.86257672	0.04508252	3.9859693	0.24021791	0.26733115	0.3594031	-48.057831
0.86254513	0.045079578	3.5511365	0.25482303	0.27389967	0.37410668	-47.066372
0.86258215	0.04507917	3.1655185	0.29335496	0.28258938	0.4073253	-43.92915
0.8625533	0.045082428	2.8183618	0.31667045	0.28923291	0.42887744	-42.407207
0.86255467	0.045080582	2.513674	0.34980828	0.29133362	0.45523742	-39.788818
0.86251843	0.045083054	2.2398219	0.38190621	0.27788916	0.47230789	-36.041027
0.86251056	0.045083279	1.9970604	0.41304559	0.28390464	0.50120705	-34.502476
0.86249965	0.04508448	1.7796129	0.43652937	0.27702564	0.5170117	-32.399597
0.86250782	0.045085274	1.5846854	0.47521132	0.2661261	0.54465485	-29.249537
0.86241907	0.045086189	1.4122382	0.49315333	0.26305613	0.5589264	-28.076197
0.8624078	0.045086395	1.2596743	0.52088422	0.2326024	0.57045966	-24.063293
0.86233741	0.045083351	1.1224856	0.54383701	0.22522984	0.58863163	-22.496868
0.8623305	0.04508416	1.0000638	0.56079835	0.21555072	0.60079688	-21.024965
