Ewe/V	I/A	freq/Hz	Re(Z)/Ohm	-Im(Z)/Ohm	|Z|/Ohm	Phase(Z)/deg
0.81574345	0.1803289	199998.14	-0.0098356698	-0.10257869	0.10304916	95.477013
0.81576741	0.18031665	178249.33	-0.0031882552	-0.093140535	0.093195088	91.960503
0.81573385	0.1803	158857.27	0.0021379183	-0.083727606	0.083754897	88.537315
0.81569362	0.18029033	141580.69	0.0033586011	-0.075492509	0.075567186	87.452637
0.81572664	0.18027893	126178.37	-0.070884049	-0.1386264	0.15569787	117.08209
0.81571823	0.18026448	112455.46	0.0086654648	-0.059300959	0.059930742	81.686386
0.81580448	0.18026419	100226.4	0.010392811	-0.051487427	0.052525856	78.588104
0.81566387	0.18026227	89324.156	0.010785702	-0.048266891	0.049457297	77.403648
0.81568682	0.1802527	79609.563	0.010807087	-0.042399462	0.043755084	75.700508
0.81571728	0.18025142	70952.719	0.011282849	-0.036724575	0.038418707	72.921532
0.81567079	0.18024823	6,32E+04	0.011874543	-0.032589007	0.034684986	69.979645
0.81568587	0.18024763	56357.633	0.011795472	-0.028130513	0.030503424	67.251091
0.8156758	0.1802428	50224.539	0.020250672	-0.026284859	0.033181071	52.388226
0.81576502	0.18024254	44759.504	0.01232157	-0.020855807	0.024223661	59.425488
0.81568587	0.18023868	39888.289	0.012416308	-0.019048298	0.022737686	56.902367
0.81570667	0.18023869	35555.2229999999	0.013822514	-0.015638625	0.020871716	48.527496
0.81566465	0.18023784	31686.088	0.013474585	-0.012991061	0.01871716	43.953331
0.81572479	0.18024336	28243.766	0.0057638655	-0.011991112	0.013304469	64.327423
0.81570184	0.1802424	25172.58	0.015983166	-0.0084047085	0.018058259	27.737528
0.81573898	0.1802451	22435.422	0.017287591	-0.011543367	0.02078726	33.732048
0.81574166	0.18024698	19995.176	0.015900217	-0.0058506778	0.016942471	20.201704
0.81572366	0.18024075	17833.281	0.01625778	-0.0036457093	0.01666153	12.639148
0.81565773	0.18024284	15875.521	0.019053187	-0.0026937795	0.01924267	8.0472622
0.81570137	0.18024077	14149.722	0.017666558	-0.0030581183	0.017929288	9.8207016
0.81570965	0.18023741	12609.483	0.018972337	-0.0023776649	0.019120745	7.1432214
0.81573498	0.18023947	11236.27	0.016505813	-0.00097560248	0.016534621	3.382623
0.81574255	0.18024199	10020.782	0.017027488	-0.003207129	0.017326888	10.6667
0.81576067	0.18024075	8926.084	0.01727516	-0.00082815398	0.017294999	2.7446015
0.81575018	0.18024124	7959.7627	0.015678538	0.00027596889	0.015680967	-1.0083989
0.81574798	0.18023364	7094.7432	0.015513874	0.0013573895	0.015573143	-5.0003719
0.815745	0.18024847	6317.6675	0.017312596	0.0017543605	0.017401258	-5.7862782
0.8157323	0.18024719	5634.436	0.01738091	0.0016703028	0.017460983	-5.4892592
0.81572223	0.18024254	5021.6064	0.018367896	0.0030438623	0.018618397	-9.4093409
0.81571722	0.18024014	4476.4321	0.019886717	0.0040579969	0.020296523	-11.533191
0.81569111	0.18023953	3986.2754	0.018680697	0.0046463995	0.01924987	-13.967592
0.81574446	0.18024377	3551.5906	0.019537518	0.0043954435	0.020025846	-12.678994
0.81566459	0.18023991	3166.0132	0.019168478	0.0049640359	0.019800812	-14.518856
0.8156904	0.18024467	2822.2908	0.019859528	0.0038891744	0.020236762	-11.080246
0.81566787	0.18024406	2515.8052	0.021362243	0.0041199555	0.021755906	-10.916126
0.81574219	0.18024678	2240.7168	0.021343304	0.0048684818	0.021891521	-12.849519
0.81564748	0.18023659	1998.0815	0.021788856	0.0055698915	0.022489507	-14.339455
0.8157143	0.18023991	1780.5698	0.021281544	0.0050677923	0.021876624	-13.394428
0.81567776	0.18024341	1587.5402	0.023539541	0.0067093382	0.024477035	-15.908833
0.81571209	0.18024445	1413.6429	0.022987911	0.0062987404	0.023835231	-15.323092
0.81568968	0.18024069	1260.4036	0.023537112	0.0059954403	0.024288701	-14.29064
0.81571579	0.18024149	1123.921	0.02328432	0.0062089553	0.02409794	-14.930964
0.81574219	0.18024083	1001.6025	0.023952551	0.0078790775	0.025215166	-18.208374
0.81570464	0.18024002	892.57068	0.024707828	0.0078456029	0.025923546	-17.61647
0.81570166	0.18024295	795.2547	0.024384342	0.0084230099	0.025798125	-19.056293
0.81572765	0.18024252	708.41333	0.025732873	0.0088000158	0.027195975	-18.879438
0.81571591	0.18024313	631.81964	0.030131463	0.0090104686	0.031449858	-16.648691
0.81567156	0.18024156	563.01819	0.027288303	0.010543787	0.029254451	-21.125776
0.81567276	0.18024191	502.08871	0.024452116	0.013559254	0.02795996	-29.009363
0.81570464	0.18024115	447.43402	0.026333934	0.011511826	0.028740184	-23.612446
0.81570828	0.18024333	398.59692	0.027565446	0.010297338	0.029425992	-20.483658
0.8156929	0.18023987	355.11365	0.028741753	0.01330179	0.031670585	-24.834875
0.81569046	0.1802455	316.72299	0.029091185	0.012566027	0.031689148	-23.36208
0.81569326	0.180243	282.25809	0.029419871	0.014610842	0.03284822	-26.410454
0.81564558	0.18024251	251.36742	0.030553326	0.015148212	0.034102406	-26.372023
0.81573683	0.18024051	224.21082	0.030993661	0.0162699	0.035004523	-27.696905
0.81569588	0.18024045	199.80815	0.032501489	0.01774665	0.037030939	-28.635675
0.81571454	0.18024124	178.00633	0.032796759	0.019389464	0.038099591	-30.591604
0.81575489	0.18024277	158.62947	0.033219922	0.020923095	0.039259892	-32.204189
0.81575352	0.18024054	141.31134	0.034656283	0.022725113	0.041442595	-33.253998
0.81575918	0.18024097	126.00809	0.035518996	0.023557337	0.042620972	-33.553612
0.81574529	0.18024396	112.33657	0.037168425	0.023602005	0.044028927	-32.415607
0.81573308	0.18024142	100.03201	0.0373751	0.025733473	0.045377415	-34.548157
0.8157385	0.18024594	89.229065	0.039495051	0.029473426	0.049280237	-36.732368
0.81573921	0.180241	79.516533	0.039753024	0.031157421	0.050508294	-38.088455
0.81572509	0.18024269	70.838745	0.041689198	0.032912683	0.05311529	-38.290295
0.81571972	0.18024329	63.160755	0.043475479	0.035809711	0.05632453	-39.477467
0.81573594	0.18024532	56.241817	0.044260576	0.039445225	0.059286796	-41.707569
0.81573862	0.18023949	50.144413	0.047368929	0.044295967	0.064853281	-43.079945
0.81575978	0.18024571	44.728058	0.049405999	0.046699215	0.067983598	-43.386703
0.81571257	0.18024377	39.859692	0.051904418	0.050742585	0.072587043	-44.351513
0.81573266	0.18024542	35.511364	0.055670097	0.05406227	0.077600829	-44.160545
0.81571192	0.18024684	31.629551	0.057892229	0.058128111	0.082038939	-45.116489
0.81572825	0.18024155	28.203972	0.062102761	0.065054037	0.08993765	-46.329582
0.81574988	0.18024216	25.136742	0.06753099	0.068365686	0.096095271	-45.351913
0.81571311	0.18024838	22.385387	0.073016591	0.073634662	0.10369901	-45.241474
0.8157689	0.1802404	19.955299	0.078884453	0.079310969	0.11186146	-45.154476
0.81569093	0.18024402	17.796129	0.08334282	0.083848342	0.11822254	-45.173241
0.81573284	0.18024243	15.857576	0.092373639	0.088733718	0.1280881	-43.848618
0.81572002	0.18024097	14.13601	0.10089617	0.09327358	0.1374045	-42.751873
0.81573969	0.18024365	12.600808	0.11060917	0.09936633	0.14868778	-41.935104
0.81578737	0.18025066	11.224856	0.11745045	0.10452681	0.15722743	-41.667969
0.81576014	0.18024069	10.003201	0.13013977	0.10603613	0.16786906	-39.172684
0.81570011	0.180239	8.9183798	0.14198181	0.10752477	0.17810224	-37.137146
0.81575227	0.18024329	7.9395342	0.15247549	0.11340409	0.19002438	-36.640133
0.81577247	0.18023511	7.0765405	0.16695605	0.1077667	0.19871584	-32.841412
0.81572509	0.18022792	6.3105822	0.18015878	0.10594853	0.20900306	-30.459112
0.81570554	0.18023116	5.6286025	0.18757121	0.10131235	0.21318337	-28.374697
0.81573009	0.18023976	5.0144415	0.19764195	0.10150746	0.22218485	-27.1847
0.81569606	0.18024261	4.4693937	0.21424741	0.091437094	0.23294353	-23.111954
0.81570536	0.18023936	3.9859693	0.21527714	0.094564319	0.23513114	-23.714338
0.81570542	0.18023557	3.5511365	0.22703446	0.086736314	0.24303876	-20.908871
0.81569749	0.18023433	3.1655185	0.23860393	0.085137896	0.25333831	-19.637255
0.81570023	0.18024042	2.8183618	0.2374323	0.078852206	0.25018346	-18.371532
0.81571436	0.18023956	2.513674	0.25225613	0.068501562	0.2613917	-15.192616
0.81566668	0.18025218	2.2398219	0.25717413	0.068273619	0.26608235	-14.867721
0.8157016	0.18024243	1.9970604	0.25648451	0.054926544	0.2622999	-12.087404
0.815687	0.18023894	1.7796129	0.26324168	0.054858178	0.268897	-11.771661
0.81569028	0.18023976	1.5846854	0.2653302	0.045837522	0.26926047	-9.8014755
0.81568134	0.18023848	1.4122382	0.26689959	0.041229207	0.27006525	-8.7813339
0.81569695	0.18023866	1.2596743	0.26749676	0.033981048	0.2696465	-7.2397051
0.81569558	0.18024216	1.1224856	0.26615655	0.031608503	0.26802689	-6.7726722
0.81568784	0.18023926	1.0000638	0.27288714	0.026055377	0.2741282	-5.4540911
