Ewe/V	I/A	freq/Hz	Re(Z)/Ohm	-Im(Z)/Ohm	|Z|/Ohm	Phase(Z)/deg
0.8348853	0.18032715	199998.14	-0.0092618102	-0.10025636	0.10068326	95.278076
0.83487064	0.18031558	178249.33	-0.0022004577	-0.09238857	0.092414774	91.36438
0.8348285	0.18029935	158857.27	-0.0008446757	-0.084326319	0.084330551	90.573898
0.83487415	0.18028777	141580.69	0.0021443185	-0.075043246	0.075073875	88.363251
0.83485943	0.18027248	126178.37	0.0052658981	-0.06446898	0.064683683	85.330383
0.83490872	0.18027342	112455.46	0.0066993693	-0.059715945	0.06009056	83.598907
0.83488268	0.18026529	100226.4	-0.0083341887	-0.058761325	0.059349407	98.072487
0.83485252	0.18026237	89324.156	0.0088813826	-0.047999371	0.048814122	79.517052
0.83484834	0.18025969	79609.563	0.0083498722	-0.045019995	0.045787774	79.492729
0.83485585	0.18024712	70952.719	0.011292247	-0.036433108	0.038142972	72.779457
0.83484375	0.18025015	6,32E+04	0.012614369	-0.03251211	0.034873478	68.79425
0.83483475	0.18025098	56357.633	0.011938299	-0.027809838	0.030264005	66.76696
0.83483142	0.18024095	50224.539	0.0069731465	-0.021273211	0.022386922	71.851372
0.83483756	0.18024342	44759.504	0.011436658	-0.020580905	0.023545079	60.939392
0.83483988	0.18024223	39888.289	0.013458804	-0.018472888	0.022855787	53.924015
0.83479255	0.18024232	35555.2229999999	0.013352189	-0.013708054	0.019136136	45.753445
0.8348124	0.18024106	31686.088	0.011939588	-0.012956543	0.017618904	47.339111
0.8348673	0.18024706	28243.766	0.01410593	-0.010783165	0.017755391	37.395813
0.83484632	0.18024696	25172.58	0.0153717	-0.0082757343	0.017457861	28.2969
0.8348037	0.18024467	22435.422	0.013890985	-0.0071378509	0.015617567	27.19626
0.83480644	0.18023946	19995.176	0.014970453	-0.0059752311	0.016118865	21.758671
0.83481431	0.18023683	17833.281	0.016309559	-0.005203716	0.01711959	17.695765
0.83484215	0.18024149	15875.521	0.015287456	-0.0036012654	0.015705904	13.255494
0.83485001	0.18023666	14149.722	0.018057341	-0.0014801438	0.018117903	4.6860065
0.83482248	0.18023607	12609.483	0.014891957	-0.0043058167	0.01550195	16.126541
0.83483356	0.1802386	11236.27	0.016205607	-0.0030528922	0.016490659	10.668629
0.83481455	0.18024208	10020.782	0.014342455	-0.002912852	0.014635256	11.480229
0.83478713	0.18023639	8926.084	0.012780488	0.000052875963	0.012780597	-0.23704512
0.83483237	0.18024141	7959.7627	0.012292625	-0.00038320548	0.012298597	1.7855378
0.83484083	0.18023511	7094.7432	0.01462235	0.00070920831	0.014639539	-2.7767646
0.83478695	0.18023956	6317.6675	0.013742615	0.0025496217	0.013977125	-10.510393
0.83480197	0.18024518	5634.436	0.016059512	0.0018589352	0.016166743	-6.6027679
0.83478391	0.18023343	5021.6064	0.013667403	-0.012987386	0.018853914	43.538586
0.83479792	0.18023802	4476.4321	0.018040346	0.0036229782	0.018400544	-11.355455
0.83478504	0.18024022	3986.2754	0.018069742	0.0040548276	0.018519104	-12.647591
0.83477575	0.18023753	3551.5906	0.017922057	0.0030425838	0.018178489	-9.6351004
0.83477122	0.18023518	3166.0132	0.019282604	0.0043917592	0.019776409	-12.830678
0.83477694	0.18024319	2822.2908	0.018442517	0.0039764252	0.01886633	-12.167382
0.8348	0.18023586	2515.8052	0.019448167	0.0045987535	0.019984487	-13.303911
0.83476412	0.18023743	2240.7168	0.019655041	0.0056622317	0.020454377	-16.070652
0.83478171	0.1802374	1998.0815	0.022568166	0.0017307361	0.022634434	-4.3853874
0.83478308	0.1802402	1780.5698	0.021562522	0.0049256915	0.022117974	-12.867716
0.83478659	0.18024283	1587.5402	0.020294018	0.0053957086	0.020999068	-14.889156
0.83476156	0.18024344	1413.6429	0.019243099	0.0054258625	0.019993421	-15.746545
0.83480161	0.18023932	1260.4036	0.020099992	0.0065732896	0.021147525	-18.10927
0.83477652	0.18023973	1123.921	0.021610146	0.0060016573	0.022428069	-15.521254
0.83475775	0.18024127	1001.6025	0.022820435	0.0073362002	0.023970651	-17.821302
0.83477718	0.18024014	892.57068	0.021237018	0.0077046035	0.02259141	-19.940327
0.83476532	0.18024207	795.2547	0.022236466	0.0063790279	0.023133362	-16.006723
0.83474696	0.18024254	708.41333	0.023215583	0.0084679918	0.024711741	-20.039677
0.8347494	0.18024362	631.81964	0.023190547	0.0083171176	0.024636881	-19.729996
0.83472818	0.18023926	563.01819	0.023092898	0.009055282	0.02480484	-21.411343
0.83471942	0.18024387	502.08871	0.023251671	0.0098147867	0.02523827	-22.885143
0.83472645	0.18023824	447.43402	0.024161568	0.011240157	0.026648125	-24.948231
0.83472991	0.18024287	398.59692	0.027313456	0.011152411	0.029502561	-22.210781
0.83472174	0.18024191	355.11365	0.02406103	0.011888713	0.026837934	-26.294279
0.83471674	0.18024643	316.72299	0.026124835	0.012187405	0.028827762	-25.009356
0.83473444	0.18024254	282.25809	0.025672749	0.012455989	0.028534921	-25.881886
0.83472741	0.1802406	251.36742	0.026106732	0.015055308	0.030136751	-29.971317
0.83472604	0.18023926	224.21082	0.027451277	0.015559301	0.031554151	-29.544434
0.83473575	0.18023965	199.80815	0.033545978	0.012387763	0.035760164	-20.268036
0.83471692	0.18024104	178.00633	0.025306819	0.018533416	0.03136754	-36.217133
0.83474237	0.1802406	158.62947	0.028976705	0.019203115	0.034762178	-33.532784
0.83470851	0.18023814	141.31134	0.030755183	0.018741708	0.03601573	-31.35745
0.83471853	0.18023872	126.00809	0.029994367	0.022165293	0.037295606	-36.46373
0.83473337	0.18024068	112.33657	0.031867158	0.022398723	0.03895149	-35.102539
0.83473337	0.18023991	100.03201	0.033611231	0.025569616	0.042231742	-37.261925
0.83473325	0.18023445	89.229065	0.033472933	0.028932476	0.044243932	-40.838638
0.8347339	0.18024165	79.516533	0.035106309	0.031232433	0.046988487	-41.657986
0.8347286	0.18023878	70.838745	0.036708679	0.032575849	0.04907864	-41.586346
0.83471811	0.18024483	63.160755	0.037591934	0.035698701	0.051841594	-43.520271
0.83473992	0.18024217	56.241817	0.040749613	0.041098308	0.057875745	-45.244095
0.83474004	0.18024289	50.144413	0.041331016	0.044167392	0.060489763	-46.90007
0.83469939	0.18024304	44.728058	0.045283061	0.047565889	0.065673962	-46.408417
0.834692	0.18024344	39.859692	0.047632232	0.053073332	0.071313448	-48.09267
0.83470613	0.18024644	35.511364	0.049612314	0.054006588	0.073335484	-47.428345
0.83470869	0.18024963	31.629551	0.054586794	0.059562922	0.080792695	-47.496113
0.83469647	0.18024127	28.203972	0.058218874	0.065486103	0.08762344	-48.362061
0.83470941	0.18024254	25.136742	0.063617334	0.069998905	0.094588645	-47.734394
0.8346746	0.18024843	22.385387	0.068158314	0.076478235	0.10244255	-48.292194
0.83466733	0.18024155	19.955299	0.076508358	0.082987472	0.1128736	-47.326218
0.83468354	0.18024783	17.796129	0.084438376	0.087421268	0.12154143	-45.994358
0.83469474	0.18025038	15.857576	0.090149671	0.090400614	0.12766846	-45.079636
0.83467513	0.18023886	14.13601	0.10033285	0.094985142	0.13816243	-43.431664
0.83468831	0.18024821	12.600808	0.1096146	0.098502427	0.14737058	-41.943661
0.83465892	0.18025752	11.224856	0.12052555	0.10208511	0.15794866	-40.264591
0.83467478	0.18024718	10.003201	0.1326334	0.10342482	0.1681913	-37.946381
0.83465517	0.18024492	8.9183798	0.1440912	0.10358627	0.17746095	-35.712124
0.8346619	0.1802419	7.9395342	0.15441495	0.10132792	0.18469252	-33.273098
0.83469027	0.18023674	7.0765405	0.16556677	0.10120671	0.19404936	-31.436373
0.83468866	0.1802299	6.3105822	0.17682946	0.098382846	0.20235573	-29.090311
0.83462673	0.18023032	5.6286025	0.18363726	0.095549092	0.2070079	-27.488605
0.834674	0.18024336	5.0144415	0.19822976	0.092340365	0.21868192	-24.977278
0.83465761	0.18024342	4.4693937	0.20452438	0.08816959	0.22271977	-23.320669
0.8346386	0.18023792	3.9859693	0.21358427	0.080934003	0.22840437	-20.753321
0.83465564	0.18023718	3.5511365	0.22044216	0.076236181	0.23325244	-19.077076
0.83465314	0.18023508	3.1655185	0.22451723	0.070601873	0.23535635	-17.45632
0.83461761	0.18024008	2.8183618	0.23315102	0.061833773	0.24121113	-14.853421
0.8346619	0.18023976	2.513674	0.23862407	0.057005838	0.24533877	-13.435796
0.83464807	0.18023982	2.2398219	0.23835114	0.05608166	0.24485999	-13.240301
0.83463377	0.18023991	1.9970604	0.24092744	0.046347119	0.24534483	-10.888948
0.83460218	0.18024442	1.7796129	0.24396056	0.044201892	0.24793257	-10.269702
0.8346011	0.1802469	1.5846854	0.24563248	0.038856559	0.24868685	-8.9891214
0.83462119	0.18024066	1.4122382	0.24894205	0.032782167	0.25109124	-7.5018835
0.83460867	0.18024066	1.2596743	0.24652855	0.030619323	0.24842276	-7.0799899
0.83459836	0.18024182	1.1224856	0.25116658	0.024420898	0.25235102	-5.5534058
0.83457136	0.18024179	1.0000638	0.25150633	0.024682177	0.25271454	-5.6049113
