Ewe/V	I/A	freq/Hz	Re(Z)/Ohm	-Im(Z)/Ohm	|Z|/Ohm	Phase(Z)/deg
0.7330879	0.90762231	199998.14	0.004688995	0.0012410415	0.004850449	-14.824618
0.73320013	0.90658069	178249.33	0.0063787983	-0.00048567471	0.0063972608	4.3540373
0.73328501	0.9055354	158857.27	0.0076597994	-0.0019237249	0.0078976732	14.098004
0.73333895	0.90498804	141580.69	0.009008077	-0.0024363296	0.0093317283	15.134168
0.73339576	0.90443726	126178.37	0.020504564	0.007041798	0.021680038	-18.953798
0.73342866	0.90416223	112455.46	0.010425282	-0.0028974668	0.010820435	15.532044
0.73344678	0.90402509	100226.4	0.010881165	-0.0020945962	0.011080934	10.896009
0.73348826	0.9038783	89324.156	0.011986163	-0.0027349505	0.012294229	12.853449
0.73349625	0.90384143	79609.563	0.01275007	-0.002658464	0.013024273	11.777762
0.73343223	0.9036886	70952.719	0.013277012	-0.0019985333	0.013426585	8.5602283
0.73356533	0.90377618	6,32E+04	0.014046331	-0.0017258892	0.014151964	7.004889
0.73342985	0.90382458	56357.633	0.014405359	-0.0010354025	0.014442521	4.1111336
0.73344886	0.90378217	50224.539	0.019082431	0.0096452059	0.021381514	-26.814295
0.73355722	0.90373669	44759.504	0.014897367	0.00034657479	0.014901398	-1.332698
0.73347819	0.90360138	39888.289	0.015822338	0.00074210775	0.015839731	-2.6853495
0.73346525	0.90363312	35555.2229999999	0.016166404	0.00097101578	0.016195539	-3.437273
0.73343259	0.90367407	31686.088	0.016665094	0.0013695534	0.016721275	-4.6980648
0.73355979	0.90367926	28243.766	0.015468144	0.00026762346	0.015470459	-0.99120903
0.73342818	0.90360846	25172.58	0.017504212	0.0013568877	0.017556725	-4.4325776
0.7335608	0.90363458	22435.422	0.018079747	0.0020444042	0.018194968	-6.4514332
0.73344612	0.90375269	19995.176	0.017860634	0.0016460179	0.017936321	-5.2654476
0.73352134	0.90361108	17833.281	0.018794063	0.0023697515	0.018942876	-7.1865234
0.73345309	0.90378882	15875.521	0.018940108	0.0023253213	0.019082317	-6.9993095
0.7335161	0.90366254	14149.722	0.018145896	0.0037687449	0.018533133	-11.733028
0.73350847	0.90370911	12609.483	0.01916882	0.0030370723	0.019407922	-9.0030022
0.73351377	0.90364386	11236.27	0.019065438	0.0036710619	0.019415654	-10.898949
0.73346502	0.90361035	10020.782	0.019352237	0.0032895771	0.019629834	-9.6471729
0.73356342	0.90358575	8926.084	0.018387772	0.0025909862	0.018569421	-8.0206347
0.73350108	0.9036402	7959.7627	0.019954247	0.0033856486	0.020239431	-9.6296997
0.73352861	0.90357086	7094.7432	0.019745443	0.0036357017	0.020077372	-10.432938
0.7334801	0.9039137	6317.6675	0.01993301	0.0034373561	0.020227216	-9.7841663
0.73341691	0.90402026	5634.436	0.020860894	0.0041748961	0.021274554	-11.317108
0.73355776	0.90387488	5021.6064	0.02052943	0.0046931943	0.021059049	-12.877
0.7335093	0.90392523	4476.4321	0.019721389	0.0054113157	0.020450318	-15.343655
0.73356444	0.90389801	3986.2754	0.021188654	0.0043450766	0.021629581	-11.588765
0.7335344	0.90397815	3551.5906	0.020695884	0.0044942945	0.021178251	-12.252055
0.73345029	0.90400049	3166.0132	0.021847861	0.0051547531	0.022447728	-13.275502
0.73345906	0.90394385	2822.2908	0.022512991	0.0048581189	0.023031197	-12.177237
0.7334522	0.90393378	2515.8052	0.022512043	0.0051762187	0.023099465	-12.949015
0.73352015	0.90385632	2240.7168	0.020768795	0.0046560792	0.021284312	-12.636001
0.73340791	0.90395764	1998.0815	0.022841653	0.0052302796	0.023432817	-12.897242
0.7335462	0.9038537	1780.5698	0.023798481	0.0061500976	0.024580305	-14.489601
0.73342282	0.90407056	1587.5402	0.023862796	0.0061042872	0.024631187	-14.348996
0.73345023	0.90389471	1413.6429	0.024137879	0.0069421781	0.025116351	-16.045507
0.73350435	0.90391589	1260.4036	0.024251642	0.0065857451	0.025129946	-15.192782
0.73342991	0.90390283	1123.921	0.024745042	0.0071742092	0.025764052	-16.168201
0.73348671	0.90397144	1001.6025	0.024519594	0.0072798319	0.025577459	-16.536077
0.73338121	0.90388727	892.57068	0.02569899	0.0077535091	0.026843155	-16.788816
0.73345321	0.90398822	795.2547	0.025599282	0.0084835766	0.026968395	-18.335144
0.73341066	0.90385333	708.41333	0.02611707	0.0086486852	0.027511835	-18.322323
0.73342079	0.90400391	631.81964	0.027251204	0.0098587219	0.028979693	-19.888702
0.73342526	0.90396625	563.01819	0.027382609	0.010598131	0.02936201	-21.158371
0.73341447	0.90395612	502.08871	0.027563196	0.010709045	0.029570483	-21.232492
0.73344213	0.9039975	447.43402	0.028881053	0.011458386	0.031071045	-21.640408
0.73340696	0.90390808	398.59692	0.029000307	0.013313774	0.031910412	-24.65942
0.7334339	0.90400391	355.11365	0.029864375	0.012988003	0.03256638	-23.5042
0.73340106	0.90399683	316.72299	0.030904735	0.013491175	0.033721127	-23.583229
0.73344654	0.90396472	282.25809	0.031388454	0.01460278	0.034619015	-24.949158
0.73336375	0.90393829	251.36742	0.032102086	0.015344768	0.035580974	-25.547758
0.73338389	0.90403223	224.21082	0.033220079	0.016901862	0.037272599	-26.966288
0.73342812	0.90403027	199.80815	0.034457147	0.018622436	0.039167464	-28.389095
0.73344845	0.9039245	178.00633	0.035127979	0.018937504	0.039907441	-28.329121
0.73339617	0.90390625	158.62947	0.03702043	0.020116158	0.042132791	-28.518766
0.73341048	0.9040426	141.31134	0.038979821	0.021247685	0.044394713	-28.594559
0.73339009	0.90388239	126.00809	0.039767455	0.022526387	0.045704361	-29.529507
0.73338586	0.90400494	112.33657	0.041558102	0.024907831	0.048450757	-30.936348
0.73341441	0.90399603	100.03201	0.043753494	0.024841258	0.050313581	-29.585955
0.73343086	0.90396509	89.229065	0.045913197	0.026996398	0.053261872	-30.455008
0.73338211	0.90397632	79.516533	0.048471343	0.027414907	0.055687055	-29.492067
0.73339915	0.90394421	70.838745	0.050546471	0.029610472	0.058580935	-30.362066
0.73330575	0.90398114	63.160755	0.053645886	0.030365059	0.061643474	-29.511065
0.73340786	0.9038161	56.241817	0.056062557	0.030580426	0.063860573	-28.611128
0.73335499	0.90398969	50.144413	0.059121512	0.031731185	0.067098595	-28.22296
0.73333305	0.90382013	44.728058	0.062010519	0.032988705	0.070239298	-28.012337
0.73341954	0.90393115	39.859692	0.06645833	0.032867614	0.074141689	-26.315144
0.73335505	0.90390436	35.511364	0.06965661	0.033075351	0.077110454	-25.399975
0.73335105	0.90396698	31.629551	0.07264258	0.034553874	0.080441996	-25.439016
0.73342133	0.90386743	28.203972	0.076461419	0.033322871	0.083407208	-23.548193
0.73341948	0.90400793	25.136742	0.079200603	0.029911593	0.084660731	-20.689983
0.73329443	0.90390698	22.385387	0.082793511	0.032537941	0.088957757	-21.454882
0.73341423	0.90394275	19.955299	0.085273042	0.030089224	0.090425953	-19.435766
0.73332757	0.9038161	17.796129	0.086285807	0.026913295	0.090385653	-17.323154
0.73335147	0.90392188	15.857576	0.088535637	0.028772861	0.093093701	-18.003447
0.73342913	0.90421362	14.13601	0.0946806	0.023692427	0.097599931	-14.048931
0.73335427	0.90383118	12.600808	0.094308071	0.022348257	0.09691985	-13.331511
0.73331577	0.90402582	11.224856	0.095565289	0.022804486	0.098248504	-13.421344
0.7333796	0.90397662	10.003201	0.099917941	0.019045366	0.10171687	-10.791699
0.73332644	0.90396289	8.9183798	0.098939702	0.017434103	0.10046399	-9.9934654
0.73337001	0.90394019	7.9395342	0.10385649	0.01785207	0.10537963	-9.753355
0.73333597	0.90402283	7.0765405	0.10098314	0.01150564	0.10163648	-6.5000367
0.73340607	0.90371991	6.3105822	0.09932071	0.013526372	0.10023755	-7.7553329
0.73338252	0.90359436	5.6286025	0.1061286	0.012255248	0.10683385	-6.5870805
0.73335677	0.90352094	5.0144415	0.10341278	0.012290264	0.10414055	-6.7776208
0.73338372	0.9039256	4.4693937	0.1016499	0.012337238	0.10239585	-6.920136
0.73333967	0.90389471	3.9859693	0.10199934	0.0088153724	0.10237957	-4.939558
0.73338395	0.9039223	3.5511365	0.10536607	0.0088449186	0.10573667	-4.7984242
0.73332632	0.90376349	3.1655185	0.1081794	0.0089943977	0.10855266	-4.7528315
0.73341495	0.90392108	2.8183618	0.10498311	0.0045576682	0.105082	-2.4858406
0.73333889	0.9039292	2.513674	0.10467023	0.0055847624	0.10481912	-3.0541651
0.7333802	0.9038396	2.2398219	0.1037944	0.001827086	0.10381047	-1.0084697
0.73339969	0.90384875	1.9970604	0.10693405	0.002139047	0.10695544	-1.1459589
0.73339337	0.90390704	1.7796129	0.10333773	0.0029400333	0.10337954	-1.6296669
0.73338878	0.90388055	1.5846854	0.10346689	0.00077856268	0.10346982	-0.43112838
0.73339862	0.90383667	1.4122382	0.1048347	0.001711929	0.10484868	-0.93554509
0.73342794	0.90387262	1.2596743	0.10734975	0.0010248795	0.10735464	-0.5469923
0.73330301	0.9038609	1.1224856	0.10208058	0.00012398952	0.10208065	-0.069592796
0.73327434	0.90386188	1.0000638	0.10681628	0.00085771311	0.10681973	-0.46006361
