Ewe/V	I/A	freq/Hz	Re(Z)/Ohm	-Im(Z)/Ohm	|Z|/Ohm	Phase(Z)/deg
0.71822411	0.91010858	199998.14	0.0077333688	0.00018742961	0.0077356398	-1.388376
0.71827847	0.90933984	178249.33	0.0099668019	-0.002163528	0.010198921	12.247383
0.71836734	0.90841974	158857.27	0.011251936	-0.0029538793	0.011633205	14.709476
0.71849757	0.90784961	141580.69	0.012725085	-0.0031099878	0.013099611	13.733768
0.71849161	0.90750525	126178.37	0.028934533	-0.012003491	0.031325564	22.531118
0.71860105	0.9071792	112455.46	0.013758859	-0.0038552668	0.014288781	15.653006
0.71856356	0.90700549	100226.4	0.014919911	-0.0035110575	0.015327468	13.242304
0.7186861	0.90682629	89324.156	0.015588337	-0.0030489925	0.015883721	11.067019
0.71870512	0.90677484	79609.563	0.016185788	-0.002654572	0.016402027	9.3139534
0.71862125	0.90673834	70952.719	0.016535947	-0.0022982853	0.0166949	7.9126897
0.71870053	0.90664484	6,32E+04	0.017287984	-0.0013596473	0.017341368	4.496882
0.71865737	0.90666974	56357.633	0.017940529	-0.0010381516	0.017970541	3.3118
0.71866757	0.90664783	50224.539	0.015176593	0.0032786292	0.0155267	-12.190382
0.71867943	0.90663214	44759.504	0.018611796	0.00095478614	0.018636269	-2.9367023
0.71862566	0.90652332	39888.289	0.019274553	0.0012391509	0.019314345	-3.678453
0.71862406	0.90653302	35555.2229999999	0.020336207	0.0010033324	0.020360943	-2.8245256
0.71875834	0.90663776	31686.088	0.020761514	0.0013866258	0.020807767	-3.8210118
0.71869749	0.90659827	28243.766	0.020673938	0.00079224695	0.020689113	-2.1945603
0.71867198	0.90659564	25172.58	0.021785276	0.0018863084	0.021866787	-4.9486923
0.7187863	0.90654346	22435.422	0.021945849	0.0020796964	0.022044171	-5.4134626
0.71871203	0.90662134	19995.176	0.022787437	0.0029366759	0.022975886	-7.3433805
0.71873087	0.90665118	17833.281	0.022707563	0.0020439927	0.022799371	-5.1435456
0.71869171	0.90667499	15875.521	0.022680303	0.0029969793	0.022877457	-7.5274644
0.71864611	0.90660718	14149.722	0.022702245	0.0035993431	0.022985805	-9.0090122
0.71861452	0.90659753	12609.483	0.023674577	0.0031378276	0.023881616	-7.5499759
0.71868396	0.90661987	11236.27	0.023348078	0.0035894904	0.023622388	-8.7401171
0.71877104	0.90657806	10020.782	0.024088325	0.0032933396	0.024312414	-7.7851725
0.71869469	0.90652972	8926.084	0.02392875	0.0038166731	0.024231222	-9.0624294
0.71864408	0.90656097	7959.7627	0.024300817	0.0045219171	0.024717959	-10.541086
0.71876395	0.9064809	7094.7432	0.024481731	0.004574223	0.024905395	-10.583247
0.71863723	0.90674097	6317.6675	0.024107303	0.0049928441	0.024618907	-11.701052
0.71871853	0.90690533	5634.436	0.02536409	0.0046421704	0.0257854	-10.371564
0.71869272	0.90678156	5021.6064	0.025361013	0.0045767841	0.025770679	-10.229797
0.71865374	0.90672565	4476.4321	0.024190567	0.0048332359	0.024668679	-11.298824
0.71873987	0.90688928	3986.2754	0.02577191	0.005404091	0.026332404	-11.842723
0.71862978	0.90681665	3551.5906	0.026113294	0.0054624202	0.026678497	-11.81486
0.71872902	0.90672681	3166.0132	0.026427398	0.0055968603	0.027013555	-11.957561
0.71864194	0.9068006	2822.2908	0.026951728	0.0062657963	0.027670488	-13.087763
0.71867394	0.90678345	2515.8052	0.027655799	0.0061925352	0.028340619	-12.621174
0.71873975	0.90673907	2240.7168	0.027160227	0.0060246028	0.027820384	-12.506686
0.7185663	0.90676666	1998.0815	0.027775804	0.0069350717	0.028628491	-14.019004
0.71865976	0.90690717	1780.5698	0.028147504	0.0076223006	0.029161301	-15.152206
0.71868944	0.90674353	1587.5402	0.029509511	0.0075535183	0.030460907	-14.357667
0.71852642	0.90666125	1413.6429	0.028553721	0.0081699472	0.029699545	-15.967175
0.71869284	0.90678418	1260.4036	0.029828174	0.0081997905	0.030934714	-15.37097
0.71859866	0.90681067	1123.921	0.029884864	0.0086183045	0.031102737	-16.086693
0.71873623	0.90672455	1001.6025	0.030784603	0.0088438625	0.032029763	-16.028406
0.71869367	0.9067052	892.57068	0.031994976	0.0098190987	0.033467792	-17.060989
0.71855038	0.90684045	795.2547	0.032066233	0.010414204	0.033714965	-17.992329
0.71867198	0.90686285	708.41333	0.032609627	0.011184839	0.034474459	-18.931555
0.71870124	0.90683453	631.81964	0.032484714	0.011864467	0.034583554	-20.063826
0.71861631	0.90678046	563.01819	0.034144718	0.012912174	0.036504604	-20.714622
0.71872562	0.9067514	502.08871	0.033918392	0.013516223	0.036512267	-21.726908
0.71868795	0.90681702	447.43402	0.03516335	0.014704802	0.038114201	-22.693974
0.71861243	0.90685797	398.59692	0.035823178	0.016236452	0.039330933	-24.381876
0.71867561	0.90684717	355.11365	0.036497552	0.016390104	0.040008835	-24.183611
0.71872002	0.9068125	316.72299	0.036740623	0.017402947	0.040653855	-25.345531
0.7187174	0.90676886	282.25809	0.038033627	0.018627977	0.042350423	-26.094526
0.71867406	0.9068092	251.36742	0.040364865	0.020615811	0.045324761	-27.055059
0.71870083	0.90679834	224.21082	0.040956739	0.021515213	0.046264011	-27.713646
0.71869898	0.90688483	199.80815	0.04310064	0.022883287	0.048798669	-27.965031
0.7187705	0.90680133	178.00633	0.043862466	0.02337862	0.049703881	-28.057539
0.71861434	0.90678491	158.62947	0.04610005	0.025688022	0.052773945	-29.127571
0.71869957	0.90684235	141.31134	0.047389962	0.026934225	0.054509275	-29.611862
0.71867573	0.9068233	126.00809	0.05050252	0.029122174	0.05829756	-29.96981
0.71876049	0.9068147	112.33657	0.051752832	0.030166192	0.059902877	-30.237469
0.71872455	0.90688556	100.03201	0.054855451	0.031904764	0.06345892	-30.182934
0.71859026	0.90687097	89.229065	0.05735407	0.033868365	0.066607475	-30.562433
0.71864355	0.90677673	79.516533	0.060669594	0.035315927	0.070199817	-30.203796
0.71867359	0.90690271	70.838745	0.064734004	0.03527683	0.073722087	-28.588198
0.71868163	0.90684045	63.160755	0.067620993	0.035386596	0.07632044	-27.623415
0.71868557	0.90685461	56.241817	0.070986144	0.038807638	0.080901578	-28.665125
0.71861643	0.9067536	50.144413	0.076028273	0.038087081	0.08503484	-26.609011
0.71866453	0.90674207	44.728058	0.078732803	0.037573826	0.08723902	-25.511976
0.7187494	0.90682776	39.859692	0.081608415	0.037870988	0.089967467	-24.894007
0.71861511	0.90692432	35.511364	0.086639166	0.036737014	0.094106078	-22.978069
0.71872991	0.90688483	31.629551	0.09067966	0.038169611	0.098385565	-22.827591
0.71864098	0.90672601	28.203972	0.093079492	0.037710119	0.10042831	-22.054783
0.71870261	0.90684979	25.136742	0.097440779	0.035373811	0.10366298	-19.952356
0.71872991	0.90685797	22.385387	0.10147316	0.027692173	0.10518393	-15.264407
0.71868753	0.9068833	19.955299	0.10341542	0.028553724	0.10728497	-15.435203
0.71878386	0.90681866	17.796129	0.10442907	0.031154392	0.10897719	-16.611454
0.71866727	0.9068468	15.857576	0.10672658	0.027868243	0.11030504	-14.634206
0.71883881	0.90695935	14.13601	0.11003016	0.028738815	0.11372139	-14.638081
0.71870357	0.90671393	12.600808	0.11148413	0.023674741	0.11397019	-11.98921
0.71883059	0.90719971	11.224856	0.11190691	0.025092339	0.11468558	-12.638118
0.71867234	0.90688849	10.003201	0.11860082	0.019958425	0.12026843	-9.5523682
0.71869618	0.90687885	8.9183798	0.1174728	0.017913485	0.11883077	-8.670269
0.71871573	0.90689917	7.9395342	0.11801006	0.015683062	0.1190476	-7.5700216
0.71869475	0.90691315	7.0765405	0.12036117	0.010549664	0.12082262	-5.0091767
0.71876603	0.90657141	6.3105822	0.11623431	0.013115933	0.11697197	-6.4380493
0.71871799	0.90638806	5.6286025	0.12320369	0.010180744	0.12362361	-4.723815
0.71866906	0.90646039	5.0144415	0.12128576	0.011206571	0.12180239	-5.2790308
0.71870667	0.90683862	4.4693937	0.11686154	0.010468958	0.11732954	-5.1191363
0.71872872	0.90692206	3.9859693	0.12262706	0.0069152825	0.1228219	-3.2276504
0.71871918	0.90680377	3.5511365	0.12068298	0.0035322227	0.12073465	-1.6764891
0.71865797	0.90666406	3.1655185	0.11981482	0.0064222459	0.11998682	-3.0681996
0.71877408	0.90678687	2.8183618	0.11783247	0.0049070092	0.1179346	-2.3846445
0.7186833	0.90675012	2.513674	0.12541638	0.0039377939	0.12547819	-1.7983683
0.71869355	0.9067774	2.2398219	0.12251259	0.004116456	0.12258172	-1.9244297
0.71878332	0.9067486	1.9970604	0.12333635	0.00098548969	0.12334029	-0.45779854
0.71876168	0.90681409	1.7796129	0.12114825	0.0028071662	0.12118077	-1.3273818
0.71871388	0.90675903	1.5846854	0.12224738	-0.00033990934	0.12224784	0.15931074
0.71879208	0.90674683	1.4122382	0.11888968	0.0030849508	0.1189297	-1.4863781
0.71876991	0.90676422	1.2596743	0.12021732	-0.0033274628	0.12026337	1.5854696
0.71869266	0.90674896	1.1224856	0.12435132	0.00014151579	0.1243514	-0.065204404
0.71878034	0.90678271	1.0000638	0.12021357	-0.0052544684	0.12032835	2.5027735
