Ewe/V	I/A	freq/Hz	Re(Z)/Ohm	-Im(Z)/Ohm	|Z|/Ohm	Phase(Z)/deg
0.76732695	0.90687921	199998.14	0.0017370555	0.0026194395	0.0031430598	-56.450043
0.76740569	0.9062688	178249.33	0.0039279927	-0.00048478993	0.0039577959	7.0358224
0.7674855	0.90535474	158857.27	0.0054334863	-0.001595946	0.0056630219	16.368786
0.76755321	0.90479797	141580.69	0.0063847699	-0.0020830822	0.0067159897	18.06933
0.76760101	0.90452594	126178.37	0.0050840345	0.0043213931	0.0066724694	-40.3643
0.76766354	0.90412421	112455.46	0.0074655944	-0.0030089673	0.0080491602	21.951632
0.76768416	0.90401355	100226.4	0.0066810716	-0.0027876603	0.0072393208	22.648216
0.76771623	0.90388239	89324.156	0.0086263278	-0.0043213833	0.0096482066	26.608709
0.76777369	0.90388013	79609.563	0.01001591	-0.0030914117	0.010482142	17.152845
0.76776594	0.90374524	70952.719	0.010177958	-0.0025038063	0.010481406	13.820492
0.76778477	0.90367963	6,32E+04	0.010618839	-0.0017665395	0.010764777	9.4451694
0.76784432	0.9037572	56357.633	0.011579034	-0.0013177752	0.011653779	6.4927258
0.76787478	0.90375531	50224.539	0.012958947	-0.0011556291	0.013010371	5.0959377
0.7679131	0.90362415	44759.504	0.011755613	0.00041176987	0.011762822	-2.0061085
0.76793873	0.90360999	39888.289	0.01235616	-0.000072860246	0.012356375	0.3378506
0.76795739	0.90360663	35555.2229999999	0.013123767	0.00059460889	0.013137231	-2.594171
0.76799321	0.90363379	31686.088	0.013934201	0.00020533631	0.013935713	-0.84425747
0.76800603	0.90357159	28243.766	0.013532558	0.00014424589	0.013533326	-0.61070257
0.76809365	0.90351379	25172.58	0.013827872	0.00086635706	0.013854985	-3.5850639
0.76807117	0.90371619	22435.422	0.014720039	-0.00093804736	0.014749898	3.6462932
0.76812166	0.9036897	19995.176	0.015113491	0.0008850887	0.015139385	-3.3515747
0.76813602	0.90358466	17833.281	0.014889845	0.0012406613	0.014941443	-4.7630334
0.76814598	0.90366852	15875.521	0.015370835	0.0019382657	0.01549256	-7.1870766
0.76814812	0.90363568	14149.722	0.014947618	0.0016394042	0.015037252	-6.2589908
0.76813316	0.90359473	12609.483	0.01430681	0.0016449126	0.014401061	-6.558732
0.76821542	0.9035578	11236.27	0.015755845	0.0017117248	0.015848555	-6.2003312
0.76818603	0.90361707	10020.782	0.015610599	0.0021798699	0.015762063	-7.9494009
0.7681464	0.90357007	8926.084	0.015519172	0.0028881854	0.015785636	-10.542387
0.76822865	0.90356824	7959.7627	0.015772283	0.0025164974	0.015971778	-9.0652399
0.76826394	0.90356488	7094.7432	0.016136337	0.0022333807	0.016290162	-7.8800688
0.76826763	0.90370197	6317.6675	0.018414885	0.0018338	0.018505966	-5.6869073
0.76831311	0.90375238	5634.436	0.016193081	0.0020929608	0.016327778	-7.3646679
0.76833111	0.90377576	5021.6064	0.016487563	0.0023918443	0.016660152	-8.2542934
0.76839495	0.90365356	4476.4321	0.016396388	0.0024667846	0.016580909	-8.5558023
0.76841968	0.90370758	3986.2754	0.016975913	0.0027945722	0.017204396	-9.3481798
0.76844096	0.90385071	3551.5906	0.015891725	0.0034775413	0.016267767	-12.343307
0.76845241	0.90372589	3166.0132	0.016969992	0.0037355414	0.017376274	-12.41432
0.76849049	0.90370166	2822.2908	0.017144436	0.0029390771	0.017394535	-9.7276793
0.76848692	0.90380896	2515.8052	0.016938973	0.0032695574	0.017251633	-10.924868
0.76851898	0.90371844	2240.7168	0.017715227	0.0023313973	0.017867979	-7.4972768
0.76855791	0.90383136	1998.0815	0.01707321	0.0032672302	0.017383019	-10.833481
0.76857638	0.90387042	1780.5698	0.01711081	0.0041905749	0.01761649	-13.761331
0.76857108	0.90382983	1587.5402	0.017438753	0.0045809774	0.018030403	-14.718462
0.76864392	0.90379144	1413.6429	0.018392166	0.004663608	0.01897422	-14.22832
0.76860642	0.90381976	1260.4036	0.018766912	0.004638867	0.019331736	-13.884252
0.76864713	0.90388574	1123.921	0.018546632	0.004548525	0.019096246	-13.779707
0.76867408	0.90385895	1001.6025	0.01836353	0.0051762657	0.019079123	-15.74195
0.76869851	0.90382874	892.57068	0.018654	0.0051893061	0.019362351	-15.545892
0.76871228	0.90378815	795.2547	0.019101745	0.0053576366	0.019838873	-15.667689
0.76877522	0.90381793	708.41333	0.019376392	0.0070086545	0.020604994	-19.885616
0.7687906	0.90382837	631.81964	0.019659277	0.006517936	0.020711606	-18.342686
0.76879573	0.90386896	563.01819	0.019469272	0.0065623568	0.020545488	-18.62702
0.76882857	0.90373669	502.08871	0.020887727	0.0080329822	0.022379141	-21.035696
0.76888049	0.90385333	447.43402	0.021166846	0.0074617714	0.022443561	-19.418657
0.76889116	0.90385071	398.59692	0.021417035	0.0076529486	0.022743285	-19.663332
0.76893568	0.90387939	355.11365	0.022051681	0.0077928076	0.023388127	-19.462816
0.76892984	0.90390179	316.72299	0.02193176	0.0086755892	0.023585333	-21.582363
0.76896822	0.90388428	282.25809	0.023158839	0.009980591	0.02521793	-23.31423
0.76901263	0.90399084	251.36742	0.023045614	0.010247773	0.025221363	-23.973444
0.76906097	0.9038645	224.21082	0.0236459	0.010885041	0.026030995	-24.718283
0.76906753	0.90384552	199.80815	0.017782796	0.011373438	0.021108836	-32.601978
0.76908517	0.90387982	178.00633	0.025250599	0.011370335	0.027692549	-24.24202
0.76912254	0.90390625	158.62947	0.025232479	0.013492947	0.028613592	-28.135431
0.76916599	0.90386859	141.31134	0.026107082	0.014046216	0.029645842	-28.281282
0.76915789	0.90391669	126.00809	0.026828848	0.016425893	0.03145786	-31.476944
0.76921117	0.90395953	112.33657	0.028482543	0.016402697	0.032867976	-29.937037
0.76920778	0.90380823	100.03201	0.029561691	0.018261036	0.034747072	-31.704718
0.76923919	0.90389282	89.229065	0.030385945	0.018900653	0.035784639	-31.882421
0.76925576	0.90383099	79.516533	0.031859346	0.020330846	0.037793666	-32.543736
0.76928318	0.90386786	70.838745	0.033736058	0.021591041	0.040053647	-32.619202
0.76934314	0.90382458	63.160755	0.035582058	0.022561809	0.04213215	-32.377895
0.7693432	0.90386377	56.241817	0.037543949	0.024265524	0.044703063	-32.875523
0.76934862	0.90387042	50.144413	0.039416023	0.024097862	0.046198808	-31.440456
0.76933891	0.90383765	44.728058	0.042272773	0.026081108	0.049671032	-31.673414
0.7693966	0.90382275	39.859692	0.044743303	0.027250562	0.052388512	-31.343182
0.76940149	0.90387042	35.511364	0.047547929	0.027418414	0.05488693	-29.969809
0.76942354	0.90390515	31.629551	0.050832361	0.02870038	0.058375001	-29.44944
0.76942992	0.90395428	28.203972	0.053276684	0.028551219	0.060444828	-28.187061
0.76943362	0.90391406	25.136742	0.056103896	0.028677644	0.063008368	-27.073957
0.76945257	0.9039137	22.385387	0.058999658	0.027215095	0.064974003	-24.762718
0.7694732	0.90388727	19.955299	0.062422976	0.028494991	0.068619184	-24.535864
0.76952058	0.90380804	17.796129	0.0650879	0.02784173	0.07079263	-23.159101
0.7694692	0.90390399	15.857576	0.066589378	0.026280103	0.07158763	-21.537123
0.76950943	0.90380823	14.13601	0.070142515	0.025620082	0.074675038	-20.065102
0.76948261	0.90375623	12.600808	0.072199576	0.024523236	0.076250687	-18.760519
0.76951861	0.90383844	11.224856	0.072646007	0.023312252	0.076294847	-17.791542
0.7695744	0.90389136	10.003201	0.075101532	0.021026893	0.077989556	-15.641159
0.76960295	0.90388574	8.9183798	0.077391133	0.020529009	0.080067642	-14.85631
0.76955569	0.90389319	7.9395342	0.079620525	0.016214846	0.08125484	-11.510963
0.76956844	0.9038194	7.0765405	0.080310442	0.017133163	0.082117677	-12.042758
0.76954091	0.90367334	6.3105822	0.081506863	0.01539888	0.082948744	-10.698641
0.76955849	0.90347882	5.6286025	0.082471132	0.013619532	0.083588153	-9.3773623
0.76953667	0.90347095	5.0144415	0.083284654	0.011353265	0.084054925	-7.7626448
0.76953292	0.9038949	4.4693937	0.083660036	0.010780717	0.084351793	-7.3428631
0.76951784	0.90391968	3.9859693	0.08484114	0.0095832869	0.085380666	-6.4445667
0.76950401	0.90380371	3.5511365	0.085638851	0.0085087921	0.086060517	-5.6740961
0.76951075	0.90369287	3.1655185	0.084439918	0.0069587757	0.08472617	-4.7111549
0.76948905	0.9037934	2.8183618	0.08539781	0.0066621429	0.085657284	-4.460783
0.76946014	0.90388336	2.513674	0.086589307	0.0052290065	0.08674705	-3.4558148
0.76946509	0.90385797	2.2398219	0.08712697	0.0059541478	0.087330185	-3.9094431
0.76941448	0.90378894	1.9970604	0.085367993	0.0044682189	0.085484847	-2.9961662
0.7694307	0.90379486	1.7796129	0.086438715	0.0043960791	0.086550429	-2.9114263
0.76933289	0.90377618	1.5846854	0.084246688	0.0018661041	0.084267356	-1.2689211
0.76927888	0.90374042	1.4122382	0.08667998	0.0026420872	0.086720236	-1.7458886
0.769238	0.90374847	1.2596743	0.087335192	0.0025994254	0.087373868	-1.7048357
0.76910198	0.90376831	1.1224856	0.087055266	0.0025313406	0.087092057	-1.665543
0.76897717	0.90372162	1.0000638	0.086022884	0.0017450966	0.086040586	-1.162167
