Ewe/V	I/A	freq/Hz	Re(Z)/Ohm	-Im(Z)/Ohm	|Z|/Ohm	Phase(Z)/deg
0.8982408	0.045129662	199998.14	-0.019148659	-0.11252107	0.11413878	99.657982
0.89822555	0.045119553	178249.33	-0.0058889207	-0.10375942	0.10392641	93.248367
0.89820832	0.045112541	158857.27	-0.0030490502	-0.091640979	0.091691688	91.905624
0.89818019	0.045105885	141580.69	-0.00032127011	-0.083333991	0.08333461	90.220886
0.89820337	0.04510154	126178.37	0.006171722	-0.082078733	0.082310438	85.699867
0.89817649	0.045093555	112455.46	0.0055600433	-0.06476175	0.06499999	85.092972
0.89818978	0.045094208	100226.4	0.011148527	-0.059716534	0.060748283	79.42514
0.89819545	0.045094543	89324.156	0.012220972	-0.056410957	0.057719566	77.776237
0.89818072	0.045089771	79609.563	0.012279387	-0.047626849	0.049184348	75.54258
0.89819568	0.045090591	70952.719	0.012285839	-0.040169306	0.042006131	72.993675
0.89819866	0.04508466	6,32E+04	0.016863832	-0.034687899	0.038569927	64.072884
0.89819831	0.045086918	56357.633	0.015414127	-0.031900227	0.035429083	64.210258
0.89818758	0.045088783	50224.539	-0.0017156722	-0.024004882	0.024066115	94.088081
0.89820999	0.045089085	44759.504	0.016169351	-0.023654675	0.028652951	55.645115
0.89826977	0.0450844	39888.289	0.012548401	-0.022659795	0.025902292	61.023464
0.89828914	0.045085819	35555.2229999999	0.0141486	-0.013279445	0.019404292	43.184986
0.89828801	0.045086285	31686.088	0.017500171	-0.013257788	0.021955067	37.146858
0.89824456	0.045085579	28243.766	0.01680289	-0.012897033	0.021181846	37.507988
0.89820659	0.045083042	25172.58	0.014106256	-0.013428698	0.019476047	43.590397
0.89818311	0.045085949	22435.422	0.017733695	-0.0073085171	0.019180676	22.397835
0.89814794	0.045078991	19995.176	0.015647566	-0.0049828836	0.016421799	17.663797
0.89819568	0.045086342	17833.281	0.017992919	-0.0059665781	0.018956402	18.345882
0.89817709	0.045083916	15875.521	0.017061941	-0.005148652	0.017821854	16.791838
0.89816505	0.0450844	14149.722	0.018713722	-0.0026346715	0.018898277	8.0138988
0.89815634	0.045081993	12609.483	0.016252581	-0.0026892852	0.016473575	9.3954973
0.89813805	0.045081379	11236.27	0.016321603	-0.003771903	0.016751776	13.012544
0.89815551	0.045083637	10020.782	0.015310864	-0.0051820897	0.016164053	18.698818
0.89815855	0.045083954	8926.084	0.014593942	-0.0024336395	0.014795464	9.4673481
0.89815819	0.045085316	7959.7627	0.012753033	0.00017622762	0.01275425	-0.79169065
0.89810699	0.045082088	7094.7432	0.013621116	0.0019600505	0.013761417	-8.1885347
0.8980608	0.045087067	6317.6675	0.018046388	-0.00076722575	0.01806269	2.4344118
0.89809746	0.045090984	5634.436	0.016675694	0.0014033819	0.016734643	-4.8105245
0.89809519	0.045084343	5021.6064	0.015602513	0.00040254238	0.015607705	-1.4778942
0.89806312	0.045083508	4476.4321	0.020278342	0.0015763802	0.020339521	-4.4450703
0.89802015	0.045085297	3986.2754	0.018794443	0.0031684453	0.019059647	-9.5691833
0.89800638	0.045088074	3551.5906	0.016201762	0.0032151032	0.016517688	-11.22405
0.89796388	0.045086956	3166.0132	0.020770557	0.0050813491	0.021383081	-13.746945
0.89795327	0.045081772	2822.2908	0.015617048	0.0050375443	0.016409419	-17.877989
0.89790928	0.045083691	2515.8052	0.019319	0.002081336	0.019430792	-6.1490541
0.89791209	0.045083729	2240.7168	0.020914743	0.0026984413	0.021088103	-7.3517451
0.89787823	0.045083523	1998.0815	0.018843153	0.0083892429	0.02062629	-23.999315
0.89788884	0.045087086	1780.5698	0.020208547	0.0028108382	0.020403093	-7.9185543
0.89789927	0.045084343	1587.5402	0.020571247	0.0062854844	0.02151008	-16.990379
0.8979131	0.045083225	1413.6429	0.020612342	0.0038666269	0.020971874	-10.624522
0.8979044	0.045080856	1260.4036	0.017891228	0.0082993777	0.019722467	-24.88563
0.89790571	0.045079182	1123.921	0.020855367	0.0027206405	0.021032076	-7.4324217
0.89792621	0.045081676	1001.6025	0.019166457	0.0040309401	0.019585749	-11.876911
0.89794225	0.045083748	892.57068	0.020104358	0.0061774123	0.021032015	-17.080482
0.89798039	0.045081753	795.2547	0.020388421	0.0070440131	0.021570949	-19.059563
0.89796329	0.045083263	708.41333	0.021608926	0.0041755466	0.022008656	-10.936615
0.89792496	0.045083843	631.81964	0.023110427	0.0083528226	0.024573592	-19.871424
0.89790368	0.045085072	563.01819	0.021481492	0.0079950979	0.022921083	-20.414534
0.89788884	0.045085033	502.08871	0.021698337	0.0067742625	0.022731222	-17.338465
0.89779246	0.045087383	447.43402	0.02251601	0.0093077254	0.024364	-22.459347
0.89779234	0.045083858	398.59692	0.025138577	0.011142368	0.02749728	-23.904734
0.89779937	0.045084438	355.11365	0.023623908	0.0099276723	0.025625138	-22.794014
0.89783251	0.045089493	316.72299	0.026934786	0.0090636425	0.028418873	-18.598253
0.89780027	0.045080002	282.25809	0.025318127	0.012465429	0.028220462	-26.213419
0.89793754	0.045086304	251.36742	0.031218363	0.009278466	0.032568023	-16.55257
0.89784145	0.045084045	224.21082	0.026121285	0.012440993	0.028932678	-25.46743
0.89781821	0.045086304	199.80815	0.02946108	0.018115271	0.034584943	-31.586868
0.89775199	0.045082668	178.00633	0.026730604	0.017075516	0.031719055	-32.57045
0.89771938	0.045084251	158.62947	0.026640631	0.017910685	0.03210165	-33.913219
0.89768171	0.045083393	141.31134	0.026668154	0.018652383	0.032543845	-34.969917
0.89765036	0.045082874	126.00809	0.028396206	0.0215971	0.035676032	-37.255272
0.89762795	0.045084064	112.33657	0.02192143	0.023802605	0.032359127	-47.35593
0.89763999	0.045084362	100.03201	0.027829472	0.025444409	0.037708055	-42.436588
0.89763623	0.045086769	89.229065	0.029699236	0.026338838	0.039696082	-41.568291
0.89760315	0.045081436	79.516533	0.032334518	0.027464911	0.042424548	-40.344543
0.89760536	0.045083374	70.838745	0.032641176	0.03499889	0.047857795	-46.996338
0.89759904	0.045084755	63.160755	0.032958835	0.034123644	0.047441628	-45.994774
0.89757001	0.045088242	56.241817	0.035979293	0.03902759	0.053081658	-47.327232
0.89754242	0.045085201	50.144413	0.032936819	0.042769141	0.053981788	-52.399876
0.89755362	0.045086285	44.728058	0.033060685	0.046285983	0.056880586	-54.462921
0.8975389	0.045085968	39.859692	0.036164127	0.051257353	0.062730856	-54.79549
0.8975215	0.045083935	35.511364	0.036340728	0.058881093	0.069192715	-58.317596
0.89750433	0.045085632	31.629551	0.039187904	0.062695436	0.073935173	-57.992477
0.89751387	0.04508239	28.203972	0.044717651	0.073070347	0.08566764	-58.534168
0.89745873	0.045081173	25.136742	0.038958479	0.063077912	0.074138962	-58.299496
0.89746517	0.045090237	22.385387	0.046632934	0.086312294	0.098104246	-61.618469
0.89748222	0.045085747	19.955299	0.061033674	0.09351252	0.11166781	-56.868351
0.89749885	0.045086739	17.796129	0.054559682	0.10286177	0.11643583	-62.057739
0.89750993	0.04508979	15.857576	0.060825922	0.11857133	0.13326272	-62.842625
0.89746326	0.045081772	14.13601	0.066435687	0.12470248	0.14129546	-61.953381
0.89739829	0.045084324	12.600808	0.074749291	0.13665143	0.15575965	-61.32103
0.89735067	0.045095592	11.224856	0.087931573	0.14793319	0.17209354	-59.272724
0.89730197	0.04508289	10.003201	0.098036475	0.16729681	0.19390558	-59.629559
0.89729232	0.045086678	8.9183798	0.10707119	0.17725044	0.2070796	-58.8652
0.89726806	0.045086395	7.9395342	0.12004977	0.19084693	0.22546507	-57.82859
0.89726537	0.045080578	7.0765405	0.14269483	0.19961135	0.24537013	-54.440414
0.89728242	0.045076794	6.3105822	0.16095775	0.21261139	0.26666647	-52.872406
0.89726043	0.045073063	5.6286025	0.17252839	0.22989771	0.2874352	-53.113342
0.89722377	0.045081974	5.0144415	0.20013367	0.2390722	0.31178358	-50.066406
0.89720279	0.045084606	4.4693937	0.22821181	0.25738332	0.34398663	-48.43784
0.89721704	0.045084641	3.9859693	0.2463789	0.26151821	0.35929701	-46.707359
0.89718258	0.045080837	3.5511365	0.27895451	0.26799127	0.38682675	-43.851688
0.89720112	0.045078743	3.1655185	0.30275381	0.27167287	0.40677515	-41.902874
0.8971734	0.045087543	2.8183618	0.33662474	0.27348179	0.43371478	-39.091213
0.89715236	0.045082752	2.513674	0.36456364	0.26886022	0.45298177	-36.408218
0.89722043	0.045083588	2.2398219	0.39275372	0.26441959	0.47346932	-33.950226
0.89716822	0.045085308	1.9970604	0.42108455	0.25850338	0.49410141	-31.545723
0.89706862	0.045084568	1.7796129	0.44190857	0.24862704	0.5070489	-29.36302
0.89707637	0.045081375	1.5846854	0.48177007	0.23215215	0.53478688	-25.728178
0.89703512	0.045084538	1.4122382	0.49374315	0.22196651	0.54134226	-24.206713
0.89691031	0.045084377	1.2596743	0.51869279	0.22122352	0.56389898	-23.098345
0.89685607	0.045084988	1.1224856	0.53672272	0.19905709	0.57244653	-20.348562
0.89689195	0.045081398	1.0000638	0.5597446	0.18408579	0.58923817	-18.204721
0.91521513	0,00E+00	0,00E+00	0,00E+00	0,00E+00	0,00E+00	0,00E+00
