Ewe/V	I/A	freq/Hz	Re(Z)/Ohm	-Im(Z)/Ohm	|Z|/Ohm	Phase(Z)/deg
0.76257062	0.90614099	199998.14	0.0014994849	0.002592992	0.0029953402	-59.959908
0.76260054	0.90575159	178249.33	0.0039458736	0.00023699256	0.0039529842	-3.4371049
0.76263142	0.90478943	158857.27	0.005653243	-0.0013870677	0.0058209202	13.785644
0.76272571	0.90436499	141580.69	0.0064205825	-0.0018748357	0.0066887136	16.278015
0.76275277	0.90406799	126178.37	0.0076996963	-0.0056685032	0.0095612369	36.360435
0.76274198	0.9037691	112455.46	0.0077332258	-0.0032668123	0.0083949296	22.901068
0.76278192	0.90366028	100226.4	0.0092677064	-0.0026752977	0.0096461186	16.101778
0.76279235	0.90360327	89324.156	0.0093066487	-0.0026102669	0.0096657751	15.667392
0.76280379	0.90348663	79609.563	0.0099135386	-0.0027962562	0.010300354	15.751869
0.76280564	0.90356	70952.719	0.010688544	-0.002092693	0.01089148	11.07772
0.76278472	0.90338715	6,32E+04	0.011294768	-0.0020757632	0.011483927	10.413668
0.76277119	0.90338269	56357.633	0.011044908	-0.0014870774	0.011144568	7.6681433
0.76284462	0.90339459	50224.539	0.012379094	-0.00064054405	0.012395655	2.9620721
0.7627815	0.90334802	44759.504	0.012228064	-0.00042422378	0.012235421	1.9869447
0.7628184	0.90331934	39888.289	0.013046215	0.00094875647	0.013080668	-4.1593838
0.7627933	0.90339349	35555.2229999999	0.012826572	0.00038890672	0.012832467	-1.7366985
0.76278055	0.90330847	31686.088	0.013480348	0.0004971826	0.013489513	-2.1122274
0.76276779	0.90336774	28243.766	0.014088659	0.00062315236	0.014102433	-2.5325863
0.76275307	0.90344379	25172.58	0.013723079	0.0015218999	0.013807211	-6.3282866
0.76275629	0.90332452	22435.422	0.014450195	0.0015084574	0.014528716	-5.959527
0.76271635	0.90330444	19995.176	0.014856721	0.001047075	0.014893574	-4.0314374
0.76273292	0.90340277	17833.281	0.015044403	0.0014159364	0.015110889	-5.376677
0.7627424	0.90333051	15875.521	0.015907571	0.00082116871	0.015928751	-2.9550569
0.76271516	0.90336102	14149.722	0.015395856	0.0015899263	0.015477734	-5.8960209
0.7627579	0.9033432	12609.483	0.014684899	0.00230456	0.014864631	-8.9189119
0.76272011	0.90331372	11236.27	0.015166513	0.0015882977	0.015249453	-5.9784503
0.7627281	0.9033786	10020.782	0.016064113	0.0022437898	0.016220059	-7.951468
0.76273066	0.90336963	8926.084	0.01625913	0.0020393594	0.016386528	-7.1491928
0.76272333	0.90332153	7959.7627	0.016280893	0.0022496616	0.016435586	-7.8671999
0.76271468	0.9032489	7094.7432	0.015783986	0.002152273	0.015930051	-7.7648492
0.76272196	0.90351831	6317.6675	0.016108662	0.0026424257	0.016323952	-9.3156948
0.76271051	0.90360516	5634.436	0.016486324	0.0029385611	0.016746165	-10.106398
0.76267499	0.90352094	5021.6064	0.016802488	0.002121524	0.016935892	-7.1962276
0.76269305	0.90356378	4476.4321	0.016502226	0.0026716522	0.016717093	-9.1961927
0.76267165	0.90354736	3986.2754	0.017010061	0.0026254158	0.017211478	-8.7740746
0.76269859	0.90360925	3551.5906	0.017046118	0.0030132942	0.017310403	-10.024785
0.76268142	0.90357831	3166.0132	0.017129248	0.0029789186	0.017386347	-9.8655443
0.76270807	0.90346429	2822.2908	0.017650142	0.0032993059	0.01795586	-10.587993
0.76266778	0.9035567	2515.8052	0.017855344	0.0035117019	0.0181974	-11.126641
0.76268065	0.90353467	2240.7168	0.017559739	0.0037406287	0.017953739	-12.025569
0.76268464	0.90360883	1998.0815	0.01818857	0.0036919902	0.018559495	-11.474237
0.76266217	0.90356342	1780.5698	0.018974846	0.0018223905	0.01906216	-5.4859996
0.7626096	0.90364124	1587.5402	0.018596539	0.0044020843	0.019110458	-13.317648
0.76267594	0.90358429	1413.6429	0.018398628	0.0038639402	0.018799987	-11.860461
0.76270002	0.90359247	1260.4036	0.018903172	0.0045673046	0.019447112	-13.583237
0.76267916	0.90364801	1123.921	0.0192663	0.004846388	0.0198665	-14.119658
0.76272088	0.90352765	1001.6025	0.019611174	0.0047144229	0.020169877	-13.517117
0.76269335	0.90370538	892.57068	0.019696826	0.0062344978	0.020659959	-17.563776
0.76269853	0.90356342	795.2547	0.01974676	0.0056082974	0.020527726	-15.855131
0.76267284	0.9035694	708.41333	0.019677669	0.005694347	0.020485025	-16.139448
0.76268232	0.90354919	631.81964	0.020070473	0.0063838041	0.021061264	-17.644278
0.7626884	0.90364124	563.01819	0.021048659	0.0064780386	0.022022966	-17.106529
0.76271874	0.90359283	502.08871	0.02123913	0.0070951125	0.022392884	-18.472336
0.76266438	0.90365247	447.43402	0.021261614	0.0082464507	0.022804828	-21.199097
0.7626819	0.90371954	398.59692	0.021666715	0.0078819422	0.023055835	-19.990433
0.76268858	0.90363605	355.11365	0.022810493	0.0083754184	0.02429951	-20.161921
0.76267678	0.90356262	316.72299	0.022124885	0.0092415418	0.023977419	-22.670244
0.76263821	0.90363721	282.25809	0.023021752	0.0094404882	0.024882199	-22.296974
0.76262391	0.90364087	251.36742	0.023650892	0.012847364	0.026915042	-28.511181
0.76266289	0.90372144	224.21082	0.023510071	0.011147943	0.026019225	-25.369249
0.76266098	0.90354626	199.80815	0.025038425	0.011539217	0.02756948	-24.743103
0.76264483	0.90366327	178.00633	0.025562951	0.01321191	0.028775319	-27.331648
0.76262367	0.90357458	158.62947	0.026087906	0.014974757	0.030080263	-29.856318
0.76262349	0.9035332	141.31134	0.027056107	0.015044644	0.030957621	-29.076403
0.76263642	0.90360809	126.00809	0.028388739	0.016646676	0.032909457	-30.386637
0.76265311	0.90360809	112.33657	0.033053558	0.018462447	0.037860267	-29.186047
0.76262993	0.90362976	100.03201	0.030516595	0.018301457	0.035583787	-30.952023
0.7626279	0.90359393	89.229065	0.032205842	0.019866301	0.037840273	-31.668524
0.76261532	0.90350824	79.516533	0.033482339	0.022243999	0.040197793	-33.598083
0.76265502	0.90358795	70.838745	0.035688344	0.023186401	0.042558983	-33.011425
0.76262134	0.90359692	63.160755	0.037377775	0.024540249	0.044713777	-33.286762
0.76262569	0.90358539	56.241817	0.039194454	0.024752405	0.046356086	-32.273567
0.76261193	0.90366736	50.144413	0.0424201	0.026477279	0.050005112	-31.971102
0.76262146	0.90360516	44.728058	0.044705365	0.026526377	0.051982865	-30.683201
0.76259005	0.90354437	39.859692	0.047416925	0.028308306	0.055224314	-30.837559
0.76258075	0.90358911	35.511364	0.049759991	0.028831638	0.057509303	-30.088606
0.76259518	0.90367407	31.629551	0.052570995	0.027717913	0.059430566	-27.800316
0.76255643	0.90355219	28.203972	0.05562152	0.02817593	0.062350914	-26.865189
0.76257581	0.90359656	25.136742	0.058966786	0.032186355	0.067179188	-28.627422
0.76258969	0.90363458	22.385387	0.062383831	0.027961193	0.068363518	-24.142504
0.76257032	0.90363232	19.955299	0.066885144	0.028415959	0.0726711	-23.018072
0.76256108	0.90349426	17.796129	0.069049709	0.027883245	0.074467026	-21.98955
0.76255798	0.90356	15.857576	0.068512298	0.025444273	0.073084511	-20.374119
0.76257491	0.9035705	14.13601	0.069634572	0.023944043	0.073636204	-18.975676
0.76254481	0.90343451	12.600808	0.074940242	0.024103543	0.078721158	-17.829704
0.76256025	0.90352948	11.224856	0.075617582	0.022482131	0.078888938	-16.557926
0.76257616	0.90363757	10.003201	0.080123864	0.021483589	0.082954071	-15.00965
0.76255995	0.90363104	8.9183798	0.080379829	0.020396415	0.082927264	-14.238306
0.76252741	0.90358112	7.9395342	0.081726804	0.017467972	0.083572723	-12.064649
0.76256329	0.90369385	7.0765405	0.081566095	0.015809063	0.083084017	-10.96901
0.76256508	0.90352539	6.3105822	0.084358282	0.015698975	0.085806631	-10.542079
0.76256055	0.9031792	5.6286025	0.083990976	0.01385613	0.085126236	-9.3678036
0.76252884	0.90324963	5.0144415	0.085299835	0.013230008	0.086319722	-8.8163309
0.7625407	0.90359137	4.4693937	0.086575434	0.0102438	0.087179363	-6.7479906
0.76255506	0.90369177	3.9859693	0.086314097	0.0097354501	0.086861394	-6.4352489
0.7625314	0.90361334	3.5511365	0.08787293	0.0074695069	0.088189825	-4.8586621
0.76257396	0.90349542	3.1655185	0.087241329	0.0074530095	0.087559104	-4.8829112
0.76252913	0.90358759	2.8183618	0.089017481	0.0066459579	0.089265227	-4.2697253
0.76252568	0.90354053	2.513674	0.087343089	0.0062614265	0.087567233	-4.100389
0.76250076	0.90356927	2.2398219	0.088540755	0.0051364359	0.088689618	-3.3201277
0.76245719	0.90354657	1.9970604	0.08704266	0.0048612552	0.087178305	-3.1965976
0.7624836	0.90352399	1.7796129	0.088326246	0.0015235472	0.088339381	-0.98820204
0.76246876	0.90351038	1.5846854	0.08856786	0.0011739109	0.088575639	-0.75937486
0.76247215	0.90351025	1.4122382	0.088496581	0.0032902542	0.088557728	-2.1292448
0.76245314	0.90350946	1.2596743	0.089083612	0.00048173073	0.089084916	-0.30983105
0.76245999	0.90351447	1.1224856	0.088678382	0.0021260418	0.088703863	-1.3733888
0.76243407	0.9034856	1.0000638	0.08908505	0.0025674999	0.089122042	-1.6508516
