Ewe/V	I/A	freq/Hz	Re(Z)/Ohm	-Im(Z)/Ohm	|Z|/Ohm	Phase(Z)/deg
0.75168884	0.90923737	199998.14	0.0022453465	0.001758139	0.0028517772	-38.061462
0.75267047	0.90814099	178249.33	0.0039871754	0.00087399111	0.0040818411	-12.363722
0.75109279	0.90714941	158857.27	0.0054607526	-0.0012506954	0.0056021479	12.900161
0.75241947	0.90650323	141580.69	0.0061325375	-0.002024537	0.0064580776	18.269627
0.75275493	0.90613171	126178.37	-0.036475431	-0.10731032	0.11334004	108.77321
0.75163841	0.90578442	112455.46	0.007272074	-0.00312079	0.0079134312	23.226454
0.75263834	0.90571692	100226.4	0.00796689	-0.002535681	0.008360683	17.655096
0.75275427	0.90563867	89324.156	0.0091800848	-0.0024926558	0.0095124803	15.191177
0.75121695	0.90550262	79609.563	0.010344004	-0.0019969149	0.010534993	10.926562
0.75284141	0.905474	70952.719	0.010761331	-0.0021728242	0.010978498	11.41514
0.7527197	0.9054035	6,32E+04	0.010872571	-0.00095649698	0.010914563	5.0275607
0.75170106	0.90532489	56357.633	0.011189997	-0.0012999277	0.01126525	6.6262765
0.75233763	0.90541248	50224.539	0.012797898	0.00051831495	0.012808389	-2.319212
0.75296015	0.90528125	44759.504	0.011914816	0.00034899919	0.011919926	-1.6777822
0.75261885	0.9052981	39888.289	0.012723873	0.00026136311	0.012726557	-1.1767563
0.75179046	0.90528802	35555.2229999999	0.012948645	0.00046235175	0.012956897	-2.0449672
0.75297254	0.90533386	31686.088	0.013350048	0.00030162226	0.013353455	-1.2942833
0.75183851	0.90516425	28243.766	0.014048613	0.00049312337	0.014057265	-2.0103261
0.75210232	0.90523438	25172.58	0.014474871	0.00061952113	0.014488122	-2.4507504
0.75280231	0.90516504	22435.422	0.015070441	0.0011434079	0.015113754	-4.3387699
0.75170439	0.90525336	19995.176	0.01511755	0.0011084032	0.015158129	-4.1933641
0.75280839	0.90528357	17833.281	0.015218219	0.00098717376	0.015250203	-3.7114565
0.75278431	0.90526007	15875.521	0.015183889	0.0012870033	0.015238335	-4.8448734
0.75197279	0.90525562	14149.722	0.015684087	0.0021138522	0.015825896	-7.6758914
0.75148427	0.90529474	12609.483	0.016165026	0.0019369491	0.016280659	-6.8328009
0.7523796	0.90524701	11236.27	0.015461005	0.0022624054	0.015625658	-8.3249941
0.75285536	0.90521606	10020.782	0.015737928	0.0018380146	0.015844895	-6.6613317
0.75217164	0.90526007	8926.084	0.015889797	0.0019024074	0.016003275	-6.8272452
0.75161016	0.90518927	7959.7627	0.015844587	0.0017135295	0.015936974	-6.1723232
0.75297874	0.90508081	7094.7432	0.016119817	0.0017038637	0.016209615	-6.0337567
0.74832076	0.90548773	6317.6675	0.016375165	0.0030720134	0.016660832	-10.625299
0.75180292	0.90556635	5634.436	0.016259307	0.0019394404	0.016374569	-6.8022075
0.75265759	0.90537671	5021.6064	0.019581897	0.0020742675	0.019691452	-6.0466676
0.75303251	0.90537708	4476.4321	0.016922111	0.003530117	0.017286398	-11.783466
0.75281841	0.90541284	3986.2754	0.016395753	0.0037272137	0.016814066	-12.807278
0.75261402	0.90540649	3551.5906	0.016720191	0.0031847367	0.017020792	-10.784094
0.75265169	0.90547766	3166.0132	0.017193498	0.0024041957	0.017360775	-7.9601517
0.75268382	0.90540649	2822.2908	0.017059194	0.0034749573	0.01740952	-11.513626
0.75266922	0.90547174	2515.8052	0.017334798	0.00327119	0.017640745	-10.686423
0.75263035	0.90542255	2240.7168	0.016836204	0.003916773	0.0172858	-13.096338
0.75260657	0.90552649	1998.0815	0.017340885	0.0034662129	0.017683918	-11.303692
0.75257587	0.9054173	1780.5698	0.017399792	0.0037907748	0.01780794	-12.29059
0.75255972	0.9054408	1587.5402	0.017695161	0.0049689105	0.018379575	-15.68507
0.7525655	0.90544897	1413.6429	0.018363038	0.004047479	0.018803809	-12.430067
0.7525208	0.90538715	1260.4036	0.018638326	0.0040814364	0.019079972	-12.351709
0.75254226	0.9054516	1123.921	0.018690366	0.0047302209	0.019279648	-14.202394
0.75255275	0.90539868	1001.6025	0.018802093	0.0041938229	0.019264134	-12.574043
0.7525214	0.9054389	892.57068	0.019827047	0.004247814	0.020276975	-12.09244
0.75251305	0.90545013	795.2547	0.019349225	0.0050150375	0.019988574	-14.530493
0.75247443	0.90546802	708.41333	0.019169135	0.0061568473	0.020133616	-17.806263
0.75246525	0.905427	631.81964	0.020074116	0.0059959083	0.020950442	-16.630283
0.75245172	0.90540576	563.01819	0.020620499	0.0063941153	0.02158911	-17.2279
0.75248247	0.90543823	502.08871	0.02046039	0.0074828286	0.021785781	-20.088614
0.75245851	0.90539343	447.43402	0.021199554	0.0078489445	0.022605907	-20.31662
0.75247782	0.90549744	398.59692	0.020958021	0.0075522079	0.022277219	-19.816591
0.75248009	0.90548181	355.11365	0.022378011	0.0076099667	0.023636559	-18.781345
0.75128573	0.90550116	316.72299	0.022239439	0.0089886673	0.023987263	-22.00742
0.75201994	0.9054397	282.25809	0.023867777	0.0086655598	0.025392178	-19.954199
0.75275385	0.90539087	251.36742	0.022973089	0.01026139	0.025160663	-24.068884
0.75258315	0.90551904	224.21082	0.024440994	0.011510298	0.027015721	-25.217728
0.75243402	0.90542816	199.80815	0.02447173	0.012262928	0.02737234	-26.615719
0.75246459	0.90536365	178.00633	0.02414112	0.015053002	0.02844972	-31.945272
0.75244915	0.90550641	158.62947	0.025978779	0.013781305	0.029407846	-27.945198
0.75245672	0.90538232	141.31134	0.026241928	0.015465245	0.030460017	-30.512264
0.75242257	0.90560956	126.00809	0.02734358	0.015963405	0.031662308	-30.27673
0.75239938	0.9053681	112.33657	0.028724806	0.018220903	0.034016404	-32.388035
0.75238001	0.90553735	100.03201	0.030088406	0.019098843	0.035638154	-32.405647
0.75236028	0.90546985	89.229065	0.030136527	0.020373067	0.036376808	-34.059704
0.75234622	0.90540613	79.516533	0.03282411	0.021774111	0.039389517	-33.558594
0.75238013	0.90558618	70.838745	0.03403664	0.023854254	0.041563425	-35.024326
0.75235772	0.90545459	63.160755	0.037033446	0.024950594	0.044654321	-33.969383
0.75237191	0.90549933	56.241817	0.037967261	0.025876112	0.045946557	-34.275898
0.75232476	0.90560919	50.144413	0.041210197	0.026912609	0.049219597	-33.146828
0.75236833	0.90548254	44.728058	0.043220796	0.028253796	0.051636364	-33.172981
0.751082	0.90555408	39.859692	0.043383412	0.029632455	0.052537631	-34.334503
0.75176567	0.9054527	35.511364	0.048822109	0.031067589	0.05786876	-32.470337
0.7527051	0.90542621	31.629551	0.052548576	0.030648196	0.060833089	-30.252256
0.75250089	0.90544452	28.203972	0.055365931	0.032163501	0.064030282	-30.15341
0.75243276	0.90550861	25.136742	0.058850143	0.032498952	0.067227386	-28.908899
0.75233364	0.90547504	22.385387	0.062809601	0.033320114	0.071100466	-27.945681
0.75232136	0.90539197	19.955299	0.065697581	0.033779606	0.073873095	-27.210785
0.75240064	0.90544525	17.796129	0.068069324	0.031910084	0.075177699	-25.116621
0.75237417	0.90551941	15.857576	0.073393866	0.030026386	0.079298444	-22.250109
0.75237906	0.90547882	14.13601	0.074382968	0.029111603	0.079876855	-21.374111
0.75193107	0.90538696	12.600808	0.077463575	0.027594507	0.08223176	-19.607199
0.75153834	0.90548627	11.224856	0.078392766	0.028547838	0.083429039	-20.009813
0.75223851	0.90552203	10.003201	0.08183527	0.020775456	0.084431224	-14.244701
0.75254059	0.90550879	8.9183798	0.088004149	0.025535904	0.091634125	-16.180986
0.75239962	0.90553937	7.9395342	0.083696939	0.021516528	0.08641839	-14.417214
0.75239408	0.90563348	7.0765405	0.089286059	0.019666633	0.091426343	-12.421925
0.75238317	0.9053208	6.3105822	0.0896409	0.018993819	0.091631085	-11.963338
0.75240201	0.90511395	5.6286025	0.092623383	0.018390028	0.09443137	-11.229821
0.75239003	0.90504431	5.0144415	0.092604198	0.014921366	0.093798637	-9.1534252
0.75137573	0.9055213	4.4693937	0.070981622	0.033269648	0.078391708	-25.112858
0.7516222	0.90558124	3.9859693	0.091729268	0.01600166	0.09311451	-9.8953571
0.75245005	0.90543628	3.5511365	0.082188986	0.012272005	0.083100133	-8.4923477
0.75144237	0.90534711	3.1655185	0.095826581	0.0082628988	0.096182168	-4.9282889
0.75270194	0.90543567	2.8183618	0.089807294	0.030148266	0.094732612	-18.556877
0.7518605	0.90550226	2.513674	0.0936248	-0.011688999	0.094351664	7.1165195
0.75142503	0.90542352	2.2398219	0.088057645	0.010752487	0.088711694	-6.9617729
0.75122833	0.90541754	1.9970604	0.10853189	0.011930653	0.10918568	-6.273201
0.75243688	0.90541284	1.7796129	0.093066126	0.011654868	0.093793072	-7.1381102
0.75248533	0.90537604	1.5846854	0.10351849	-0.001708117	0.10353258	0.94532889
0.75153005	0.90538812	1.4122382	0.089301996	-0.0029488814	0.089350671	1.8913025
0.75074226	0.90540063	1.2596743	0.0033140965	-0.11488809	0.11493587	88.347687
0.75197715	0.90537769	1.1224856	0.087564163	0.013549202	0.088606231	-8.7958803
0.75214916	0.90539154	1.0000638	0.12017024	-0.0045305644	0.12025562	2.1590979
