Ewe/V	I/A	freq/Hz	Re(Z)/Ohm	-Im(Z)/Ohm	|Z|/Ohm	Phase(Z)/deg
0.73871273	0.90765771	199998.14	0.002413868	0.0025194767	0.0034892007	-46.226349
0.73749709	0.90662286	178249.33	0.0047411718	0.000336139	0.0047530727	-4.0553632
0.7383852	0.90568188	158857.27	0.0062161754	-0.001088171	0.0063107014	9.9292889
0.73750496	0.90492059	141580.69	0.006909491	-0.0019365464	0.0071757422	15.656771
0.73810774	0.90461798	126178.37	0.0084768841	-0.0039661829	0.009358855	25.074057
0.73930126	0.9043493	112455.46	0.0082625868	-0.0030628659	0.0088120084	20.339285
0.73949492	0.90431537	100226.4	0.0089375293	-0.0030460809	0.0094423536	18.820091
0.73938876	0.90406763	89324.156	0.0090581393	-0.0029924361	0.0095396312	18.281427
0.73870289	0.90405566	79609.563	0.010078352	-0.0028646116	0.010477556	15.86696
0.73744005	0.90396472	70952.719	0.011016312	-0.0023935032	0.011273331	12.258082
0.73902029	0.90394348	6,32E+04	0.010414788	-0.0025366389	0.010719252	13.688508
0.73904169	0.90395319	56357.633	0.011301752	-0.0019133895	0.011462577	9.6090746
0.73845136	0.90385779	50224.539	0.020568013	-0.011715918	0.023670781	29.666634
0.73840308	0.90391589	44759.504	0.012577692	-0.00025895756	0.012580357	1.1794754
0.73775208	0.90374036	39888.289	0.012757783	0.00070248492	0.012777109	-3.1517088
0.7382654	0.9038075	35555.2229999999	0.013180903	-0.00043671965	0.013188136	1.8976729
0.73913008	0.90377655	31686.088	0.013396221	0.00038246255	0.01340168	-1.6353521
0.73911119	0.90381195	28243.766	0.013525594	-0.001026942	0.013564523	4.3418994
0.73910135	0.90385815	25172.58	0.014593286	0.00079667091	0.014615015	-3.1247671
0.73726106	0.90378064	22435.422	0.014736372	0.00063352176	0.014749983	-2.4616497
0.73843586	0.90383691	19995.176	0.015540862	0.00073966011	0.015558454	-2.7249098
0.73881555	0.90381903	17833.281	0.015931364	0.00092063006	0.015957942	-3.3072886
0.73902601	0.90376282	15875.521	0.015424867	0.0012832074	0.015478151	-4.7555327
0.73899686	0.90375269	14149.722	0.0167941	0.0019785273	0.016910246	-6.7190928
0.73847044	0.90372327	12609.483	0.015295424	0.0024450512	0.015489617	-9.082181
0.73799801	0.9037486	11236.27	0.015442173	0.0023852207	0.0156253	-8.7805986
0.73797125	0.90371991	10020.782	0.015982108	0.0019284072	0.016098028	-6.8800707
0.73796266	0.90372101	8926.084	0.016701214	0.0024583011	0.016881166	-8.3734093
0.73771846	0.9037337	7959.7627	0.016710237	0.0023516349	0.016874898	-8.0106392
0.73848277	0.90369086	7094.7432	0.01573408	0.0025480897	0.015939074	-9.1990232
0.73729187	0.90391479	6317.6675	0.01713337	0.0026559674	0.017338008	-8.811697
0.73729122	0.90401691	5634.436	0.017183593	0.0024237668	0.017353687	-8.0286751
0.73822904	0.90401355	5021.6064	0.016489591	0.0026918161	0.016707858	-9.2713757
0.73894542	0.90411047	4476.4321	0.017164614	0.0040354277	0.017632602	-13.230066
0.73900288	0.90409778	3986.2754	0.018399918	0.0024880162	0.01856737	-7.7007632
0.73907429	0.90399231	3551.5906	0.017571229	0.0035724777	0.01793072	-11.492393
0.73836792	0.90398969	3166.0132	0.018360371	0.0041270233	0.018818488	-12.668324
0.73733598	0.90396027	2822.2908	0.017759079	0.0036022211	0.01812073	-11.466214
0.73786312	0.90386597	2515.8052	0.018546797	0.0037225576	0.018916689	-11.349132
0.7389648	0.90391443	2240.7168	0.017825505	0.0038295987	0.018232236	-12.125017
0.73895568	0.90403107	1998.0815	0.018277707	0.0045892168	0.018845038	-14.094616
0.73902202	0.90395911	1780.5698	0.019003967	0.0041257441	0.019446658	-12.248787
0.73795551	0.9039621	1587.5402	0.018774558	0.0035882427	0.019114379	-10.820035
0.73754656	0.90401392	1413.6429	0.019184249	0.0049372832	0.019809395	-14.432512
0.73808712	0.90397144	1260.4036	0.018930726	0.0042935549	0.019411517	-12.7787
0.73746538	0.9035332	1123.921	0.019941879	0.0046201046	0.020470073	-13.04407
0.7377578	0.90391144	1001.6025	0.020745298	0.0057182913	0.021518974	-15.410484
0.7384693	0.90407355	892.57068	0.016295694	0.0073015355	0.01785671	-24.135496
0.73881841	0.9040672	795.2547	0.021076687	0.0061147753	0.021945778	-16.178518
0.7374689	0.90398224	708.41333	0.021141898	0.0061775423	0.022025937	-16.288061
0.73801863	0.90400873	631.81964	0.020418718	0.0057451907	0.021211583	-15.714947
0.73903418	0.90412683	563.01819	0.0210713	0.0063634282	0.0220112	-16.804056
0.73904175	0.90397144	502.08871	0.021848107	0.0084149521	0.023412628	-21.064543
0.73910832	0.90393079	447.43402	0.022177478	0.0082478337	0.023661515	-20.400234
0.73757845	0.90396698	398.59692	0.022326784	0.0079917209	0.023713982	-19.694483
0.73742276	0.90403552	355.11365	0.022443073	0.0086920094	0.024067458	-21.170958
0.73767537	0.90396362	316.72299	0.023142293	0.0093282908	0.024951607	-21.953581
0.73770535	0.90389734	282.25809	0.023641791	0.01000825	0.025672931	-22.944338
0.73906606	0.9039826	251.36742	0.024761796	0.0099665392	0.026692292	-21.924618
0.73912609	0.90401984	224.21082	0.023955775	0.011641475	0.026634622	-25.917757
0.73919696	0.90420251	199.80815	0.025077615	0.012141333	0.027862137	-25.833956
0.73849887	0.90405121	178.00633	0.025680281	0.013603338	0.029060759	-27.911028
0.73731732	0.90397925	158.62947	0.026952822	0.013767252	0.030265357	-27.057524
0.73889208	0.90397253	141.31134	0.027787033	0.015119027	0.03163391	-28.550774
0.73908788	0.90392188	126.00809	0.027998753	0.016862296	0.032684356	-31.058523
0.73899949	0.90390063	112.33657	0.029706914	0.018641757	0.035071582	-32.109196
0.73767525	0.90405231	100.03201	0.031027362	0.018384608	0.036065094	-30.647966
0.73791575	0.90406537	89.229065	0.032018203	0.020837797	0.03820182	-33.056519
0.7373144	0.90389392	79.516533	0.032945447	0.023720099	0.040596128	-35.753174
0.73822403	0.90397632	70.838745	0.035903245	0.024414919	0.043418098	-34.21648
0.73727441	0.90397144	63.160755	0.035839021	0.024706693	0.043529946	-34.581589
0.73819917	0.90406537	56.241817	0.038608465	0.028090507	0.0477461	-36.038654
0.73889184	0.90399158	50.144413	0.042688686	0.0295229	0.051903039	-34.667194
0.73892903	0.90402771	44.728058	0.044486422	0.030414328	0.053889453	-34.359505
0.73890072	0.90397296	39.859692	0.047764324	0.031459223	0.057193648	-33.370274
0.73734426	0.90394385	35.511364	0.049575206	0.029924601	0.057906672	-31.116034
0.7381658	0.9040188	31.629551	0.055197179	0.034258809	0.064964563	-31.826315
0.73750603	0.9039845	28.203972	0.057772465	0.035971649	0.068055987	-31.908188
0.73770279	0.90404596	25.136742	0.059548173	0.035993095	0.069580801	-31.150303
0.73824179	0.90407806	22.385387	0.066810839	0.034833774	0.075346403	-27.536594
0.73729819	0.90400537	19.955299	0.067587264	0.032779943	0.075116992	-25.873468
0.73780727	0.90388513	17.796129	0.071232758	0.028768953	0.076822907	-21.992428
0.73812896	0.90404486	15.857576	0.07723368	0.031794712	0.083522119	-22.375446
0.73738527	0.90403741	14.13601	0.07840386	0.031571861	0.084521875	-21.933783
0.73879153	0.90386243	12.600808	0.080781654	0.029056875	0.08584857	-19.78348
0.73892283	0.90408099	11.224856	0.085887834	0.027456341	0.090169676	-17.727869
0.73895937	0.90403369	10.003201	0.08608222	0.025242448	0.089706913	-16.343061
0.73885036	0.90402679	8.9183798	0.08710362	0.025311407	0.090706713	-16.203316
0.73735964	0.90400854	7.9395342	0.07339938	0.019101165	0.075844072	-14.586884
0.73813415	0.90407953	7.0765405	0.097366922	0.019649886	0.099329934	-11.409765
0.73910201	0.9038067	6.3105822	0.077971466	0.030707283	0.083800279	-21.495869
0.73906732	0.90372028	5.6286025	0.092323974	0.019978642	0.094460905	-12.21037
0.73905277	0.90376611	5.0144415	0.096460782	0.01613903	0.097801588	-9.4982843
0.73847222	0.90393359	4.4693937	0.086270526	-0.035349932	0.09323208	22.281698
0.7384513	0.90402264	3.9859693	0.073581845	0.027484275	0.078547269	-20.481655
0.73747385	0.90394666	3.5511365	0.095786706	0.036423713	0.10247819	-20.819735
0.73780566	0.90377991	3.1655185	0.11063977	-0.011367701	0.11122222	5.8662796
0.73822588	0.90397827	2.8183618	0.10001083	0.033602592	0.10550497	-18.57181
0.73740876	0.90391022	2.513674	0.093063898	-0.0025812476	0.093099691	1.5887651
0.7389946	0.90392828	2.2398219	0.11543138	-0.0065920507	0.11561946	3.2684948
0.73797053	0.90390924	1.9970604	0.074028701	-0.047615185	0.088019624	32.749084
0.73886597	0.90390088	1.7796129	0.095415168	0.034563117	0.10148233	-19.912373
0.7385211	0.90387274	1.5846854	0.1191213	0.03104165	0.12309942	-14.6058
0.73755211	0.90387701	1.4122382	0.12631352	-0.0014548312	0.1263219	0.65988189
0.73890066	0.90387201	1.2596743	0.10185955	-0.015277969	0.10299896	8.5302353
0.73775548	0.90390186	1.1224856	0.085585259	0.048844732	0.098542601	-29.714022
0.73840797	0.9038714	1.0000638	0.10490789	-0.041460186	0.11280343	21.564209
