Ewe/V	I/A	freq/Hz	Re(Z)/Ohm	-Im(Z)/Ohm	|Z|/Ohm	Phase(Z)/deg
0.87589538	0.045288624	199998.14	-0.018032696	-0.11533552	0.11673672	98.886246
0.87592363	0.045280212	178249.33	-0.011293844	-0.098268218	0.098915085	96.556168
0.87589949	0.045268555	158857.27	-0.0040025245	-0.092771038	0.092857338	92.470444
0.87591338	0.045263802	141580.69	0.001120986	-0.086481169	0.086488433	89.257362
0.87594181	0.045260838	126178.37	-0.0013903852	-0.054301962	0.054319758	91.466721
0.87589461	0.045251438	112455.46	0.0083292769	-0.066938736	0.067454956	82.907066
0.87592494	0.045250465	100226.4	0.01526701	-0.061685376	0.063546576	76.098755
0.8759011	0.045252499	89324.156	0.0102091	-0.051688939	0.052687496	78.827293
0.87589806	0.045253151	79609.563	0.015123132	-0.046509631	0.048906595	71.98748
0.87589997	0.045247204	70952.719	0.014917671	-0.041951239	0.044524636	70.424843
0.8758601	0.045251698	6,32E+04	0.0088202516	-0.040674131	0.041619487	77.764755
0.87588412	0.045251682	56357.633	0.014957636	-0.030069064	0.033583917	63.552288
0.87587142	0.045242001	50224.539	0.014735121	-0.023667302	0.027879473	58.093853
0.87588322	0.045247501	44759.504	0.014922212	-0.022298791	0.026831111	56.209808
0.87586516	0.045244743	39888.289	0.013728579	-0.018978439	0.023423387	54.118866
0.87586612	0.045243919	35555.2229999999	0.015567231	-0.016008448	0.022329556	45.80056
0.87588692	0.045240993	31686.088	0.015424071	-0.012010481	0.01954875	37.90733
0.87584293	0.045247612	28243.766	0.014453191	-0.011303956	0.018348683	38.029243
0.87587208	0.045245079	25172.58	0.014682272	-0.0046718554	0.01540764	17.650915
0.87588924	0.045245693	22435.422	0.017805282	-0.0053087324	0.018579846	16.602209
0.87587547	0.04524564	19995.176	0.0181056	-0.0070833373	0.019441873	21.366608
0.87587827	0.045245674	17833.281	0.014640275	-0.0034299716	0.0150367	13.185629
0.87586504	0.0452542	15875.521	0.017231856	-0.0032417323	0.017534129	10.654211
0.87585872	0.045247654	14149.722	0.01557275	-0.000047765283	0.015572824	0.17573906
0.875875	0.045246029	12609.483	0.018526411	-0.0042976979	0.019018361	13.060291
0.87585461	0.045242916	11236.27	0.015658377	-0.0019743468	0.015782358	7.1864347
0.87582779	0.045243435	10020.782	0.012701262	-0.0019848382	0.012855412	8.8818312
0.87584454	0.045243214	8926.084	0.018189305	-0.0031155623	0.018454202	9.7196093
0.87583351	0.045242134	7959.7627	0.014204228	-0.00073618017	0.014223293	2.9668849
0.8758235	0.045238121	7094.7432	0.015598848	0.0014823066	0.015669119	-5.4283271
0.87581092	0.045249237	6317.6675	0.016604936	0.0041469065	0.017114926	-14.02219
0.87582701	0.045252445	5634.436	0.01651595	0.0057869228	0.01750043	-19.309639
0.87578321	0.045245789	5021.6064	0.0168822	0.0027003179	0.017096795	-9.0875168
0.87578982	0.045245396	4476.4321	0.018709498	0.0061662737	0.019699447	-18.24118
0.87578481	0.045246105	3986.2754	0.017008979	0.0078325961	0.018725783	-24.725962
0.87576634	0.045246288	3551.5906	0.018564234	0.003523275	0.018895615	-10.746262
0.87575716	0.045248306	3166.0132	0.018967416	0.0057646711	0.019824084	-16.905336
0.87577462	0.045246849	2822.2908	0.019168854	0.0025039637	0.019331705	-7.4422183
0.87574583	0.04524894	2515.8052	0.017876333	0.0040648566	0.018332658	-12.810525
0.87574571	0.045248417	2240.7168	0.017328203	0.0056792204	0.018235136	-18.146263
0.87572688	0.045245266	1998.0815	0.020517711	0.0070967553	0.021710375	-19.079702
0.87572414	0.04525013	1780.5698	0.020291232	0.0038004587	0.020644069	-10.608342
0.87571102	0.045250729	1587.5402	0.020738782	0.003041141	0.020960573	-8.342412
0.87573099	0.045250992	1413.6429	0.022014637	0.0041232682	0.022397446	-10.6084
0.87570632	0.045245693	1260.4036	0.019844994	0.0091879964	0.021868769	-24.843576
0.87571496	0.045242859	1123.921	0.024536878	0.007565069	0.025676617	-17.135275
0.87569582	0.045247353	1001.6025	0.022970531	0.0056804949	0.023662487	-13.890277
0.8757118	0.045242226	892.57068	0.02227284	0.0071512521	0.023392729	-17.800526
0.87568647	0.04524786	795.2547	0.020658577	0.0080483109	0.022170974	-21.285236
0.87569505	0.045248455	708.41333	0.022233376	0.0078353174	0.023573613	-19.41309
0.87567663	0.045247952	631.81964	0.023507031	0.0077168504	0.024741266	-18.173891
0.87571496	0.045248695	563.01819	0.023472704	0.011721813	0.026236782	-26.536654
0.87564969	0.045247353	502.08871	0.026246546	0.0084089208	0.027560681	-17.764523
0.87567681	0.045248268	447.43402	0.02412767	0.011475993	0.026717838	-25.437452
0.87564856	0.045247971	398.59692	0.028156552	0.016422924	0.03259607	-30.253807
0.87569088	0.045252892	355.11365	0.025280721	0.011566265	0.02780096	-24.584723
0.87562311	0.045251232	316.72299	0.02731015	0.012166682	0.029897699	-24.012989
0.87563699	0.04524564	282.25809	0.02513475	0.012325782	0.027994296	-26.122782
0.87565106	0.045250038	251.36742	0.02386925	0.014797442	0.028083898	-31.796324
0.87561017	0.045249683	224.21082	0.027379641	0.014321891	0.030899212	-27.613409
0.8756234	0.045247444	199.80815	0.010856546	0.024727289	0.027005618	-66.296066
0.87562376	0.045245602	178.00633	0.026686376	0.01674662	0.031505745	-32.109688
0.87561899	0.045246532	158.62947	0.030059287	0.020550471	0.036412671	-34.359035
0.8756175	0.045243435	141.31134	0.029290581	0.019922074	0.03542354	-34.221691
0.87561607	0.045243084	126.00809	0.025250325	0.022312682	0.033696212	-41.465721
0.87557977	0.045245972	112.33657	0.033268288	0.024652783	0.041406989	-36.539536
0.87561077	0.045247803	100.03201	0.032829076	0.028798085	0.043670103	-41.257652
0.87558067	0.045246887	89.229065	0.03166312	0.029349159	0.043173213	-42.828033
0.87558877	0.045246178	79.516533	0.03430941	0.032847602	0.047498427	-43.753036
0.8755995	0.045251308	70.838745	0.031276945	0.03627054	0.047893625	-49.228024
0.87556332	0.045245323	63.160755	0.03629354	0.041996218	0.055505887	-49.166103
0.87557971	0.045244255	56.241817	0.038714897	0.046469465	0.060483504	-50.201458
0.87554359	0.045247463	50.144413	0.037578389	0.049023181	0.061768986	-52.528275
0.8755759	0.045250278	44.728058	0.039427903	0.050688196	0.064217232	-52.122375
0.87558788	0.045243938	39.859692	0.042876583	0.061643571	0.075088821	-55.179207
0.87557191	0.045247822	35.511364	0.043867499	0.06326203	0.076983385	-55.261578
0.87554854	0.045245956	31.629551	0.024311373	0.079714201	0.08333905	-73.039253
0.87556624	0.045243958	28.203972	0.051191807	0.077136584	0.092577823	-56.429699
0.87555707	0.045247822	25.136742	0.052603759	0.08547271	0.10036304	-58.389984
0.87552708	0.045248268	22.385387	0.055677693	0.094359785	0.10956174	-59.456955
0.8755582	0.045248959	19.955299	0.058464244	0.099926062	0.11577256	-59.669163
0.87553281	0.045251568	17.796129	0.063626587	0.11266509	0.12938997	-60.544804
0.87553167	0.045249405	15.857576	0.069040842	0.1220419	0.1402172	-60.502541
0.87552708	0.045246681	14.13601	0.077631846	0.13808912	0.15841499	-60.655891
0.87550974	0.045251278	12.600808	0.086449049	0.14746884	0.17094004	-59.620354
0.87551516	0.045254517	11.224856	0.097476959	0.16058761	0.18785669	-58.742176
0.87551272	0.04524823	10.003201	0.10707156	0.17497733	0.20513748	-58.536839
0.87550217	0.045249535	8.9183798	0.12123629	0.19214495	0.22719577	-57.749603
0.87551159	0.045247406	7.9395342	0.13565397	0.20487879	0.24571797	-56.490734
0.87552327	0.045242153	7.0765405	0.15027332	0.22209802	0.26815966	-55.9174
0.87547839	0.045237022	6.3105822	0.17151779	0.24314569	0.29755366	-54.800415
0.87548441	0.045239464	5.6286025	0.19519736	0.24773964	0.31539965	-51.764954
0.87547213	0.04524894	5.0144415	0.21868347	0.2625258	0.34167564	-50.205769
0.8754707	0.045247017	4.4693937	0.2417613	0.27399704	0.36540785	-48.576427
0.87550724	0.045247223	3.9859693	0.2706911	0.280074	0.38950625	-45.976002
0.87549728	0.045243465	3.5511365	0.30388439	0.28830978	0.41888931	-43.493477
0.87549406	0.04523843	3.1655185	0.3409141	0.2928066	0.44939753	-40.658844
0.87548375	0.045247837	2.8183618	0.36909789	0.29563278	0.47289744	-38.693344
0.87553561	0.045244263	2.513674	0.39851099	0.29655388	0.4967446	-36.654957
0.87553698	0.045247936	2.2398219	0.42932174	0.28577289	0.51573569	-33.649246
0.87554389	0.045248833	1.9970604	0.45219535	0.28007743	0.53190601	-31.77294
0.87552005	0.045246922	1.7796129	0.49258757	0.2758517	0.56456769	-29.249062
0.87553447	0.045244633	1.5846854	0.51679343	0.25617263	0.57680142	-26.367447
0.8755163	0.045244846	1.4122382	0.53855747	0.24657591	0.59232074	-24.600443
0.87552834	0.04524762	1.2596743	0.56847972	0.23049568	0.61343086	-22.070578
0.87551969	0.045248318	1.1224856	0.57787138	0.21830343	0.61773109	-20.695145
0.8755374	0.045250015	1.0000638	0.59819168	0.19880453	0.63036221	-18.383841
