Ewe/V	I/A	freq/Hz	Re(Z)/Ohm	-Im(Z)/Ohm	|Z|/Ohm	Phase(Z)/deg
0.73482305	0.90908752	199998.14	0.0018201323	0.0024663873	0.0030652811	-53.573601
0.7348159	0.90794055	178249.33	0.0041828724	-0.00091016776	0.0042807506	12.275861
0.73427457	0.90709534	158857.27	0.0057538119	-0.0012286169	0.0058835237	12.053404
0.73518854	0.9064361	141580.69	0.0065373182	-0.0018871084	0.0068042418	16.101686
0.73435628	0.90612909	126178.37	0.015464894	0.0043640565	0.01606885	-15.758598
0.73521668	0.90585107	112455.46	0.0080876602	-0.002632183	0.0085052121	18.027824
0.73524535	0.90556671	100226.4	0.0095507987	-0.0037559336	0.010262786	21.467661
0.73514104	0.90547662	89324.156	0.0092642065	-0.0029342796	0.0097177941	17.574711
0.73554796	0.90547205	79609.563	0.0099634882	-0.0024840645	0.01026848	13.999393
0.73504931	0.90531781	70952.719	0.010358703	-0.0023169466	0.010614659	12.607913
0.73560369	0.90532007	6,32E+04	0.011191989	-0.0019073492	0.011353352	9.671484
0.73483723	0.90534131	56357.633	0.011139072	-0.001278148	0.011212162	6.5457525
0.73474765	0.90536401	50224.539	0.011170955	-0.0097810114	0.014847843	41.204586
0.73516798	0.9052157	44759.504	0.012549427	0.000045132332	0.012549508	-0.2060557
0.73588026	0.90511548	39888.289	0.012813044	0.00064687664	0.012829362	-2.8901689
0.7352221	0.90523248	35555.2229999999	0.013695135	0.00033967593	0.013699346	-1.4207971
0.73406196	0.90525787	31686.088	0.013461319	0.00028244307	0.013464281	-1.2019938
0.73528641	0.90530328	28243.766	0.016598271	-0.0055187955	0.017491704	18.391563
0.73405921	0.90521423	25172.58	0.014997154	0.0012676507	0.015050634	-4.8315034
0.73529905	0.90522278	22435.422	0.015419502	0.00024267394	0.015421411	-0.90165329
0.73417675	0.90524445	19995.176	0.015280399	0.00088439969	0.015305971	-3.3124726
0.73506629	0.90514569	17833.281	0.015502295	0.0016397302	0.015588773	-6.0379181
0.73444688	0.9052038	15875.521	0.015818667	0.0018124488	0.015922161	-6.536252
0.73520559	0.90520227	14149.722	0.015770594	0.00063079823	0.015783204	-2.2905176
0.73542798	0.9052038	12609.483	0.015799217	0.0023102267	0.015967229	-8.319068
0.73411351	0.90517621	11236.27	0.015563531	0.0026599846	0.015789205	-9.6987896
0.73446709	0.90530701	10020.782	0.016155148	0.0024531519	0.016340341	-8.6343765
0.73463994	0.90517365	8926.084	0.016077546	0.0021250779	0.016217381	-7.5295243
0.73528755	0.90510504	7959.7627	0.016270945	0.0027875174	0.016507994	-9.7214642
0.73400176	0.90522351	7094.7432	0.01635926	0.0030710399	0.01664502	-10.632101
0.73513186	0.90547058	6317.6675	0.01618791	0.0021361955	0.016328251	-7.5174532
0.73566115	0.90559167	5634.436	0.01653279	0.0027511469	0.016760129	-9.4477615
0.73505503	0.90558276	5021.6064	0.016853614	0.0029630272	0.017112097	-9.9712477
0.73480862	0.90555298	4476.4321	0.019696772	0.0085472921	0.021471353	-23.458134
0.7352221	0.90546838	3986.2754	0.01665711	0.002639859	0.016864998	-9.005476
0.73581463	0.90556152	3551.5906	0.017436381	0.0028062577	0.017660761	-9.1429319
0.7347818	0.90547955	3166.0132	0.017391453	0.0033931166	0.017719364	-11.039869
0.73549998	0.90559583	2822.2908	0.017639544	0.0027033088	0.017845487	-8.7129459
0.73477274	0.9055213	2515.8052	0.017720599	0.0042650681	0.01822664	-13.532794
0.73527199	0.90560144	2240.7168	0.018059034	0.0039417082	0.018484203	-12.312726
0.73427141	0.9055235	1998.0815	0.018283671	0.0040278644	0.018722082	-12.423728
0.73522258	0.9055589	1780.5698	0.018851519	0.003995901	0.019270366	-11.96768
0.73408008	0.90560919	1587.5402	0.018524041	0.0044972128	0.019062135	-13.646089
0.73511618	0.90550378	1413.6429	0.018726636	0.004821172	0.019337285	-14.437277
0.73446196	0.90552948	1260.4036	0.018567404	0.0047626705	0.019168504	-14.3866
0.73514992	0.90567853	1123.921	0.019360224	0.005093548	0.020019053	-14.74011
0.73483968	0.90553735	1001.6025	0.019517323	0.0049078935	0.020124942	-14.115134
0.73509353	0.90553882	892.57068	0.01906997	0.0056725061	0.019895755	-16.565506
0.73490971	0.905591	795.2547	0.020889392	0.0064460891	0.021861354	-17.149281
0.73505664	0.9055578	708.41333	0.020566648	0.0062945695	0.021508338	-17.017105
0.73526537	0.90562708	631.81964	0.021540042	0.0072490014	0.022727108	-18.599943
0.73444843	0.90566101	563.01819	0.02157121	0.0071551385	0.022726925	-18.350607
0.73519844	0.90553735	502.08871	0.024599921	0.0068187956	0.025527477	-15.49272
0.73430675	0.90571954	447.43402	0.02208679	0.0075260676	0.023333838	-18.816528
0.73534417	0.90567334	398.59692	0.022724893	0.0089373775	0.024419203	-21.469009
0.73432797	0.90555328	355.11365	0.023197973	0.0093207965	0.025000464	-21.889944
0.73512328	0.90555591	316.72299	0.023116512	0.0096914805	0.025065871	-22.745621
0.73520845	0.90558948	282.25809	0.024202634	0.011149022	0.026647104	-24.733315
0.73507094	0.90563049	251.36742	0.024339322	0.011512487	0.026924709	-25.314125
0.73535645	0.90567072	224.21082	0.025255667	0.009615507	0.027024187	-20.843166
0.73450148	0.90563232	199.80815	0.025143618	0.011855313	0.027798381	-25.244059
0.73557538	0.90549298	178.00633	0.025424637	0.013492809	0.02878312	-27.954811
0.73422599	0.90556635	158.62947	0.027663041	0.013835586	0.030930039	-26.571787
0.73515642	0.90558575	141.31134	0.029230127	0.015098125	0.032899145	-27.317535
0.73458707	0.90557532	126.00809	0.028966768	0.016862564	0.033517454	-30.205173
0.73514009	0.9055578	112.33657	0.029822689	0.018041851	0.034855433	-31.172707
0.73502415	0.90556152	100.03201	0.030766288	0.020170432	0.036788732	-33.248917
0.735021	0.90554327	89.229065	0.032773815	0.022152755	0.039558407	-34.055882
0.73490196	0.90551831	79.516533	0.034271009	0.023759151	0.041701309	-34.73251
0.73479593	0.90566547	70.838745	0.035967093	0.024542306	0.043542583	-34.307846
0.73456281	0.90556635	63.160755	0.038316946	0.02587794	0.046236958	-34.03373
0.73497283	0.90550043	56.241817	0.039587729	0.024533564	0.046573427	-31.787592
0.73487002	0.90563794	50.144413	0.040702395	0.029890647	0.050498869	-36.292469
0.73496538	0.90548444	44.728058	0.04374478	0.029888881	0.052980665	-34.343075
0.7356267	0.90553174	39.859692	0.046603542	0.031721041	0.05637477	-34.241447
0.73453337	0.90553693	35.511364	0.050657742	0.032585755	0.060233198	-32.751282
0.73539495	0.90565955	31.629551	0.052304827	0.035799284	0.063382834	-34.389126
0.73407853	0.90555707	28.203972	0.053186156	0.034903836	0.063616388	-33.275204
0.73523664	0.90560107	25.136742	0.060095396	0.03898168	0.071631193	-32.969997
0.73408377	0.90558466	22.385387	0.064992554	0.037435375	0.075002931	-29.941719
0.73452401	0.90551831	19.955299	0.062173285	0.04076812	0.074347541	-33.253563
0.73526752	0.90535101	17.796129	0.075775221	0.034397505	0.083217017	-24.415262
0.73524511	0.90563831	15.857576	0.065719202	0.035486672	0.074688137	-28.367899
0.73483759	0.90551904	14.13601	0.08065024	0.043872904	0.09181118	-28.545738
0.73555875	0.90532605	12.600808	0.092727058	0.028020578	0.096868262	-16.813946
0.73494393	0.90558801	11.224856	0.084455617	0.037816349	0.092535548	-24.12121
0.73433697	0.90563531	10.003201	0.095031939	0.012552072	0.095857307	-7.5242262
0.73506135	0.90559845	8.9183798	0.092967771	0.020026583	0.095100321	-12.156564
0.73414427	0.90553821	7.9395342	0.097234204	0.041775178	0.10582843	-23.250034
0.73509449	0.90556897	7.0765405	0.10949162	0.025769364	0.11248323	-13.243807
0.73406219	0.90539307	6.3105822	0.096055217	0.023373127	0.098858021	-13.676006
0.73489118	0.90525073	5.6286025	0.089295819	0.024991412	0.092727095	-15.635452
0.73540229	0.90521649	5.0144415	0.11203735	0.015878553	0.11315695	-8.0665522
0.73492897	0.9054801	4.4693937	0.085640006	0.0041372501	0.085739881	-2.7657964
0.7349984	0.90548981	3.9859693	0.08138229	0.050633151	0.095847763	-31.888397
0.73525697	0.90549982	3.5511365	0.12964514	0.01236542	0.13023351	-5.4483309
0.73473692	0.90536249	3.1655185	0.12279489	-0.0046157809	0.12288161	2.152698
0.73448735	0.90544128	2.8183618	0.10356335	-0.009532785	0.10400116	5.2591343
0.73450583	0.90542609	2.513674	0.10083479	0.035391662	0.10686545	-19.340391
0.73510307	0.90546509	2.2398219	0.091782562	-0.022431603	0.094483942	13.733832
0.73528397	0.90543976	1.9970604	0.11172479	-0.0061349571	0.1118931	3.1430311
0.73509675	0.90539142	1.7796129	0.09304186	0.010806797	0.093667358	-6.6252093
0.73455787	0.90543079	1.5846854	0.12436828	0.010213646	0.12478697	-4.6948347
0.7345742	0.90543536	1.4122382	0.086031683	-0.055613652	0.10244183	32.879929
0.73513663	0.90538928	1.2596743	0.14268422	-0.00085083576	0.14268675	0.3416546
0.73488629	0.90538739	1.1224856	0.077314146	0.043192685	0.088561192	-29.190552
0.73488069	0.90538672	1.0000638	0.063183226	0.035214182	0.072333664	-29.132423
