Ewe/V	I/A	freq/Hz	Re(Z)/Ohm	-Im(Z)/Ohm	|Z|/Ohm	Phase(Z)/deg
0.76806092	0.90643689	199998.14	0.0023636429	0.0026483969	0.0035497625	-48.251705
0.76812124	0.90583173	178249.33	0.0035315871	0.0038003705	0.0051879594	-47.099476
0.76819992	0.90504059	158857.27	0.0064070262	-0.0010153768	0.0064869849	9.0052652
0.76826602	0.90445105	141580.69	0.0067826766	-0.00058575952	0.0068079229	4.9358811
0.76824623	0.90410223	126178.37	0.0064973612	-0.0033244295	0.0072984612	27.096937
0.76827872	0.9038902	112455.46	0.0085187741	-0.0027604981	0.0089548789	17.954853
0.76829195	0.90373969	100226.4	0.0097312704	-0.0030374078	0.010194286	17.334637
0.76829487	0.90371954	89324.156	0.0099877119	-0.0026393514	0.010330564	14.802596
0.76829189	0.90354364	79609.563	0.010847209	-0.0028352241	0.011211621	14.648157
0.76828259	0.90361188	70952.719	0.011090491	-0.0027725138	0.01143179	14.035714
0.76823628	0.90346466	6,32E+04	0.012542279	-0.0016981319	0.012656715	7.7105389
0.76823878	0.90349182	56357.633	0.012286971	-0.0011367683	0.012339445	5.2858543
0.76821262	0.90346765	50224.539	0.012545479	0.000072216666	0.012545687	-0.32981318
0.76822168	0.90338867	44759.504	0.013174394	-0.00060414395	0.013188239	2.6255982
0.76819199	0.90340875	39888.289	0.013342544	0.00034394339	0.013346977	-1.4766406
0.76818144	0.90336737	35555.2229999999	0.013806213	0.00037319283	0.013811256	-1.5483731
0.76817286	0.90352386	31686.088	0.014717259	0.00034513825	0.014721305	-1.3434119
0.76817209	0.90335876	28243.766	0.014711555	0.00099645811	0.014745263	-3.8748977
0.76813269	0.90344678	25172.58	0.015424147	0.0012588324	0.015475431	-4.6658192
0.76816756	0.90343408	22435.422	0.014909897	0.00070825068	0.014926709	-2.7196226
0.76816726	0.90343744	19995.176	0.016340641	0.0017192321	0.016430834	-6.0061088
0.76811415	0.90343817	17833.281	0.016362289	0.0018753306	0.016469408	-6.5383096
0.76814359	0.90336102	15875.521	0.016295353	0.0015788516	0.016371662	-5.5340958
0.76811373	0.90337299	14149.722	0.016726207	0.0021848439	0.016868301	-7.4420667
0.76809466	0.90338123	12609.483	0.015852986	0.0022255571	0.016008444	-7.9913707
0.76810324	0.90341058	11236.27	0.016014088	0.0031538131	0.016321689	-11.141248
0.76810783	0.90341174	10020.782	0.0175237	0.0013664414	0.017576896	-4.4587169
0.76810265	0.90335028	8926.084	0.015996344	0.0025759558	0.016202426	-9.1480341
0.76810342	0.90322723	7959.7627	0.016510969	0.0023198887	0.016673151	-7.9980378
0.76808327	0.90329504	7094.7432	0.017515058	0.0029678866	0.017764729	-9.6172886
0.76807922	0.90353247	6317.6675	0.016767304	0.0027911661	0.016998032	-9.4510689
0.76809734	0.9036748	5634.436	0.017391929	0.0028785279	0.017628532	-9.3977957
0.7680943	0.90359991	5021.6064	0.017474268	0.0025798141	0.017663676	-8.3981991
0.76812518	0.90352539	4476.4321	0.017429307	0.0027822314	0.017649973	-9.0695772
0.76807904	0.90358795	3986.2754	0.017734341	0.0028821684	0.017967019	-9.2309494
0.76808965	0.9035932	3551.5906	0.01792557	0.0027998611	0.018142913	-8.8775101
0.76810008	0.90362634	3166.0132	0.018236969	0.0027835383	0.018448174	-8.6781721
0.76805419	0.90359955	2822.2908	0.01768396	0.0030917372	0.017952194	-9.9169531
0.76809317	0.90348328	2515.8052	0.018475857	0.0033464618	0.018776476	-10.266463
0.7680465	0.90361816	2240.7168	0.018635018	0.0040544565	0.019070987	-12.274654
0.76801574	0.9035116	1998.0815	0.019486435	0.0040852469	0.019910058	-11.840334
0.76803815	0.90365692	1780.5698	0.019425953	0.0047427183	0.019996526	-13.719991
0.76802522	0.90362897	1587.5402	0.018972419	0.0046255058	0.019528134	-13.701507
0.76801151	0.90362299	1413.6429	0.019127352	0.0049440726	0.019755999	-14.492708
0.76802778	0.90371991	1260.4036	0.02008762	0.0051310724	0.020732593	-14.328927
0.76798701	0.90359692	1123.921	0.020701233	0.0050840937	0.021316404	-13.798389
0.76800019	0.90356262	1001.6025	0.020409644	0.0053759245	0.021105783	-14.756599
0.76801616	0.90362451	892.57068	0.020471076	0.0056083156	0.021225413	-15.320993
0.76801628	0.90362976	795.2547	0.021184798	0.0060056136	0.022019606	-15.827341
0.76793563	0.90360547	708.41333	0.02197337	0.0067226887	0.022978762	-17.011339
0.76796508	0.90367889	631.81964	0.022089772	0.0079096947	0.02346319	-19.700945
0.76795995	0.90371619	563.01819	0.022131544	0.0077518858	0.023449881	-19.303528
0.76794988	0.90360547	502.08871	0.022630168	0.0074967877	0.023839597	-18.328693
0.76796478	0.90360138	447.43402	0.025759619	0.0088889822	0.027250174	-19.038239
0.76796079	0.90370758	398.59692	0.023503158	0.0093719307	0.025302798	-21.739738
0.76793635	0.90360254	355.11365	0.024197988	0.0088892188	0.025779078	-20.17099
0.76793653	0.90374298	316.72299	0.024400122	0.011450918	0.02695347	-25.140551
0.76790982	0.90366663	282.25809	0.025281712	0.010546183	0.027393192	-22.643297
0.76790416	0.90371881	251.36742	0.024369698	0.012192349	0.027249506	-26.579157
0.76793748	0.90368707	224.21082	0.027369278	0.01241322	0.03005271	-24.396465
0.76790196	0.90361853	199.80815	0.027371094	0.012948146	0.030279221	-25.316919
0.76790005	0.90373633	178.00633	0.02723101	0.01353126	0.030407613	-26.423071
0.76789802	0.903604	158.62947	0.029465163	0.014414313	0.032801956	-26.06781
0.76789528	0.90359436	141.31134	0.03012445	0.016150009	0.034180481	-28.196188
0.76790869	0.90365283	126.00809	0.031021066	0.0169567	0.035353024	-28.661848
0.76789862	0.90359283	112.33657	0.031492069	0.018247608	0.036396779	-30.089506
0.76789439	0.90367889	100.03201	0.033531204	0.018861443	0.038472012	-29.357935
0.76786727	0.90356	89.229065	0.035169382	0.020138789	0.040527228	-29.796434
0.76788592	0.9035332	79.516533	0.03691775	0.021222897	0.042583231	-29.893293
0.76787817	0.90362042	70.838745	0.03921609	0.021676574	0.044808209	-28.93149
0.76789111	0.90366028	63.160755	0.040679578	0.024649838	0.04756514	-31.213818
0.76786685	0.90370013	56.241817	0.040863447	0.024936246	0.047871053	-31.392942
0.76785696	0.90355182	50.144413	0.04489693	0.02567992	0.051722266	-29.768475
0.76786751	0.90364423	44.728058	0.047342267	0.026281809	0.054148164	-29.036613
0.7678616	0.90359094	39.859692	0.049360353	0.028693028	0.057094082	-30.169312
0.76782227	0.90365875	35.511364	0.05237098	0.027121183	0.05897693	-27.37813
0.76782924	0.90363275	31.629551	0.055701576	0.029021697	0.062808633	-27.520466
0.76784265	0.90359802	28.203972	0.057532117	0.028501535	0.064204998	-26.353914
0.7678287	0.90371954	25.136742	0.059938706	0.027294839	0.06586089	-24.483532
0.76785481	0.90353619	22.385387	0.066074967	0.025270535	0.070742503	-20.929476
0.76782143	0.90362897	19.955299	0.062280361	0.022167418	0.066107772	-19.592146
0.76780653	0.90358374	17.796129	0.069083929	0.026979776	0.074165337	-21.332447
0.76779675	0.90368707	15.857576	0.07218615	0.025898086	0.07669127	-19.736366
0.76782155	0.90361072	14.13601	0.074217707	0.024272017	0.07808584	-18.109716
0.76778358	0.90352838	12.600808	0.076353371	0.023726808	0.079954982	-17.26263
0.76780826	0.90359174	11.224856	0.079059877	0.02198807	0.082060583	-15.54227
0.76780593	0.90363458	10.003201	0.079705797	0.021989854	0.082683541	-15.423529
0.76776928	0.90375104	8.9183798	0.083043031	0.020141657	0.085450754	-13.63352
0.76779401	0.90363586	7.9395342	0.083626255	0.017938696	0.085528634	-12.107061
0.76779073	0.90375232	7.0765405	0.082684249	0.015520886	0.084128372	-10.631429
0.76781827	0.90346613	6.3105822	0.085902251	0.016010532	0.087381542	-10.557696
0.76779383	0.9033111	5.6286025	0.087591439	0.013462849	0.088620022	-8.7380104
0.7677936	0.90322913	5.0144415	0.088203423	0.010834404	0.088866353	-7.0028062
0.76776195	0.90360907	4.4693937	0.087588571	0.010302757	0.088192426	-6.7086878
0.76777822	0.90361652	3.9859693	0.090039276	0.01008485	0.090602294	-6.3907785
0.76780009	0.90383398	3.5511365	0.088720031	0.0077300854	0.089056149	-4.9795475
0.76773745	0.90357733	3.1655185	0.08979518	0.0073599257	0.090096295	-4.6856875
0.76772577	0.90359656	2.8183618	0.088798679	0.0060868463	0.08900705	-3.9212961
0.7677049	0.90361938	2.513674	0.091325201	0.0057629202	0.091506854	-3.610764
0.76772904	0.90360052	2.2398219	0.090182565	0.0041450947	0.090277776	-2.631655
0.76769805	0.90356836	1.9970604	0.088669784	0.0042684171	0.088772461	-2.7559967
0.76767296	0.90364557	1.7796129	0.09191221	0.0021917827	0.091938339	-1.3660438
0.76765758	0.90355432	1.5846854	0.090971127	0.0032550334	0.091029346	-2.0492232
0.76764506	0.90358728	1.4122382	0.089798771	0.0020064437	0.089821182	-1.2799911
0.76761538	0.90359064	1.2596743	0.090107255	0.00084817474	0.090111248	-0.53930616
0.76758426	0.90361993	1.1224856	0.088883959	0.00023939133	0.088884279	-0.15431446
0.76759744	0.90356018	1.0000638	0.089704841	0.00064421794	0.089707151	-0.41146424
